=~=~=~=~=~=~=~=~=~=~=~= PuTTY log 2025.04.24 08:50:52 =~=~=~=~=~=~=~=~=~=~=~=




Speed (Hz)
60.1584
60.1976
60.2029
60.1697
60.1444
60.1203
60.922
60.460
60.451
60.683
60.833
60.921
60.1361
60.2058
60.2717
60.3377
60.3704
60.3656
60.3484
60.3157
60.2648
60.2101
60.1613
60.1229
60.716
60.211
60.13
59.9908
59.9770
59.9875
60.586
60.1469
60.2112
60.2397
60.2555
60.2405
60.1779
60.985
60.384
59.9742
59.9006
59.8479
59.8475
59.8516
59.8507
59.8647
59.9209
59.9889
60.519
60.1006
60.1215
60.1169
60.995
60.670
60.152
59.9657
59.9381
59.8931
59.8472
59.8341
59.8452
59.8425
59.8442
59.9036
60.41
60.890
60.1333
60.1659
60.1828
60.1463
60.778
60.157
59.9571
59.8911
59.8283
59.8164
59.8302
59.8264
59.8309
59.8834
59.9442
59.9999
60.611
60.944
60.934
60.765
60.450
60.10
59.9514
59.9105
59.8841
59.8509
59.8162
59.8058
59.8019
59.7952
59.8338
59.9244
60.232
60.762
60.1071
60.1271
60.1122
60.478
59.9879
59.9406
59.8870
59.8163
59.7889
59.7957
59.7992
59.8014
59.8311
59.8982
59.9669
60.305
60.734
60.933
60.884
60.728
60.343
59.9836
59.9418
59.9151
59.8682
59.8316
59.8327
59.8380
59.8391
59.8598
59.9358
60.357
60.1119
60.1577
60.1879
60.1916
60.1322
60.634
60.160
59.9625
59.8881
59.8435
59.8432
59.8488
59.8500
59.8729
59.9290
59.9902
60.597
60.1161
60.1404
60.1390
60.1177
60.846
60.369
59.9841
59.9559
59.9159
59.8629
59.8385
59.8292
59.8220
59.8275
59.8812
59.9749
60.652
60.1087
60.1384
60.1552
60.1168
60.524
59.9972
59.9490
59.8866
59.8266
59.8103
59.8164
59.8193
59.8308
59.8697
59.9299
60.6
60.682
60.950
60.998
60.938
60.742
60.369
59.9920
59.9519
59.9236
59.8733
59.8507
59.8522
59.8542
59.8545
59.8942
59.9774
60.755
60.1404
60.1850
60.2124
60.1978
60.1334
60.698
60.113
59.9584
59.8831
59.8539
59.8504
59.8474
59.8470
59.8792
59.9449
60.137
60.835
60.1281
60.1416
60.1306
60.1122
60.759
60.281
59.9763
59.9570
59.9146
59.8746
59.8565
59.8541
59.8451
59.8614
59.9284
60.295
60.1045
60.1367
60.1667
60.1670
60.1066
60.461
59.9963
59.9462
59.8824
59.8309
59.8226
59.8317
59.8379
59.8523
59.9023
59.9711
60.408
60.919
60.1119
60.1131
60.981
60.760
60.352
59.9899
59.9587
59.9295
59.8912
59.8719
59.8778
59.8774
59.8754
59.9351
60.339
60.1273
60.1826
60.2243
60.2394
60.2065
60.1323
60.731
60.196
59.9599
59.8967
59.8901
59.8987
59.8952
59.8972
59.9494
60.153
60.838
60.1504
60.1856
60.1857
60.1732
60.1401
60.950
60.481
60.39
59.9726
59.9215
59.8859
59.8769
59.8729
59.8668
59.9053
59.9993
60.956
60.1572
60.1926
60.2162
60.2019
60.1388
60.794
60.237
59.9706
59.8996
59.8652
59.8714
59.8753
59.8771
59.9043
59.9641
60.315
60.1021
60.1466
60.1566
60.1485
60.1316
60.1011
60.576
60.176
59.9920
59.9525
59.9168
59.9133
59.9209
59.9123
59.9347
60.20
60.979
60.1665
60.2118
60.2412
60.2426
60.1818
60.1130
60.628
60.78
59.9468
59.9002
59.8967
59.9103
59.9138
59.9374
59.9966
60.590
60.1252
60.1745
60.1921
60.1816
60.1576
60.1279
60.809
60.278
60.18
59.9644
59.9228
59.8969
59.8940
59.8929
59.8954
59.9550
60.583
60.1476
60.1908
60.2213
60.2327
60.1916
60.1243
60.703
60.153
59.9517
59.8832
59.8646
59.8653
59.8626
59.8730
59.9153
59.9797
60.516
60.1158
60.1470
60.1468
60.1396
60.1185
60.826
60.354
59.9927
59.9546
59.9053
59.8804
59.8892
59.8862
59.8802
59.9152
60.22
60.1016
60.1628
60.2022
60.2275
60.2089
60.1459
60.871
60.322
59.9746
59.9096
59.8798
59.8809
59.8776
59.8805
59.9161
59.9805
60.503
60.1219
60.1750
60.1830
60.1742
60.1455
60.1093
60.611
60.116
59.9796
59.9354
59.8988
59.8854
59.8808
59.8775
59.8922
59.9639
60.632
60.1282
60.1689
60.1981
60.1950
60.1427
60.761
60.285
59.9757
59.9102
59.8631
59.8602
59.8651
59.8625
59.8776
59.9329
59.9963
60.607
60.1096
60.1384
60.1335
60.1272
60.1012
60.608
60.108
59.9847
59.9504
59.9080
59.8913
59.8948
59.8848
59.8810
59.9361
60.341
60.1195
60.1643
60.2015
60.2231
60.1833
60.1153
60.645
60.123
59.9539
59.9028
59.8962
59.8985
59.8916
59.8941
59.9411
60.50
60.726
60.1353
60.1753
60.1692
60.1548
60.1233
60.839
60.314
59.9928
59.9575
59.9132
59.8837
59.8734
59.8589
59.8414
59.8825
59.9727
60.656
60.1222
60.1576
60.1870
60.1635
60.1033
60.414
59.9858
59.9352
59.8647
59.8344
59.8394
59.8455
59.8473
59.8756
59.9372
60.2
60.644
60.1073
60.1168
60.1067
60.839
60.497
60.4
59.9538
59.9239
59.8824
59.8488
59.8457
59.8512
59.8398
59.8560
59.9359
60.364
60.1074
60.1477
60.1911
60.1929
60.1401
60.726
60.172
59.9610
59.8911
59.8440
59.8433
59.8485
59.8431
59.8591
59.9079
59.9702
60.342
60.937
60.1159
60.1119
60.969
60.597
60.151
59.9682
59.9356
59.8967
59.8563
59.8301
59.8335
59.8274
59.8378
59.8926
59.9897
60.746
60.1162
60.1443
60.1541
60.1159
60.496
59.9910
59.9350
59.8725
59.8120
59.7989
59.8118
59.8130
59.8242
59.8767
59.9444
60.172
60.805
60.1188
60.1191
60.1115
60.888
60.464
59.9995
59.9647
59.9327
59.8901
59.8611
59.8608
59.8593
59.8549
59.8959
59.9899
60.836
60.1432
60.1885
60.2177
60.1989
60.1343
60.730
60.181
59.9597
59.8859
59.8610
59.8687
59.8692
59.8715
59.8999
59.9674
60.394
60.1080
60.1608
60.1718
60.1580
60.1306
60.908
60.425
59.9915
59.9666
59.9217
59.8828
59.8688
59.8708
59.8596
59.8797
59.9526
60.475
60.1290
60.1575
60.1876
60.1880
60.1297
60.625
60.84
59.9539
59.8850
59.8363
59.8301
59.8356
59.8359
59.8481
59.9054
59.9721
60.437
60.951
60.1198
60.1235
60.1154
60.871
60.433
60.6
59.9696
59.9393
59.8947
59.8806
59.8875
59.8878
59.8932
59.9502
60.446
60.1262
60.1700
60.2024
60.2202
60.1824
60.1107
60.565
60.5
59.9353
59.8743
59.8602
59.8686
59.8656
59.8719
59.9151
59.9825
60.531
60.1183
60.1529
60.1567
60.1394
60.1116
60.700
60.188
59.9831
59.9477
59.9026
59.8727
59.8596
59.8520
59.8406
59.8771
59.9645
60.656
60.1178
60.1485
60.1656
60.1467
60.810
60.195
59.9633
59.9127
59.8494
59.8203
59.8333
59.8415
59.8475
59.8777
59.9426
60.86
60.730
60.1146
60.1225
60.1192
60.967
60.591
60.123
59.9717
59.9359
59.8917
59.8533
59.8510
59.8560
59.8538
59.8750
59.9505
60.558
60.1340
60.1774
60.2083
60.2138
60.1633
60.1034
60.511
59.9948
59.9257
59.8819
59.8835
59.8818
59.8756
59.8968
59.9532
60.168
60.820
60.1437
60.1664
60.1603
60.1385
60.1044
60.590
60.79
59.9808
59.9378
59.8951
59.8668
59.8631
59.8590
59.8551
59.9054
60.13
60.923
60.1312
60.1621
60.1788
60.1440
60.774
60.229
59.9634
59.9027
59.8418
59.8277
59.8379
59.8368
59.8486
59.8880
59.9526
60.290
60.930
60.1317
60.1434
60.1331
60.1112
60.715
60.211
59.9880
59.9541
59.9042
59.8887
59.8964
59.8998
59.8870
59.9279
60.176
60.1083
60.1664
60.2068
60.2340
60.2186
60.1435
60.790
60.243
59.9671
59.8939
59.8698
59.8662
59.8647
59.8719
59.9061
59.9725
60.403
60.1103
60.1529
60.1602
60.1490
60.1194
60.843
60.373
59.9967
59.9715
59.9305
59.8927
59.8771
59.8763
59.8678
59.8823
59.9555
60.589
60.1315
60.1706
60.1995
60.2025
60.1448
60.782
60.294
59.9728
59.9083
59.8601
59.8573
59.8602
59.8565
59.8769
59.9330
59.9959
60.678
60.1194
60.1448
60.1451
60.1310
60.1043
60.672
60.186
59.9910
59.9507
59.9053
59.8981
59.9070
59.9057
59.9068
59.9718
60.709
60.1528
60.1950
60.2158
60.2264
60.1878
60.1129
60.606
60.82
59.9391
59.8772
59.8769
59.8889
59.8859
59.8986
59.9495
60.91
60.717
60.1370
60.1748
60.1702
60.1559
60.1220
60.804
60.369
60.18
59.9756
59.9382
59.9052
59.9029
59.9042
59.8927
59.9334
60.153
60.1116
60.1575
60.1826
60.2055
60.1898
60.1235
60.642
60.150
59.9574
59.8858
59.8545
59.8531
59.8593
59.8599
59.8967
59.9552
60.287
60.1005
60.1378
60.1571
60.1496
60.1238
60.776
60.331
59.9905
59.9672
59.9240
59.8975
59.9028
59.9078
59.9014
59.9254
60.12
60.1022
60.1696
60.2062
60.2342
60.2330
60.1780
60.1108
60.558
60.42
59.9359
59.8955
59.8930
59.8939
59.8889
59.9128
59.9681
60.350
60.1017
60.1599
60.1877
60.1838
60.1537
60.1190
60.717
60.260
60.4
59.9608
59.9165
59.8875
59.8828
59.8769
59.8770
59.9337
60.351
60.1164
60.1551
60.1803
60.1971
60.1621
60.960
60.354
59.9817
59.9241
59.8559
59.8399
59.8496
59.8528
59.8692
59.9148
59.9839
60.512
60.1124
60.1440
60.1471
60.1336
60.1114
60.723
60.238
59.9867
59.9539
59.9141
59.8981
59.9072
59.9097
59.9088
59.9521
60.422
60.1331
60.1877
60.2242
60.2464
60.2272
60.1592
60.1023
60.516
59.9904
59.9275
59.9020
59.9070
59.9095
59.9047
59.9384
60.15
60.666
60.1363
60.1805
60.1877
60.1812
60.1598
60.1201
60.707
60.271
60.24
59.9547
59.9207
59.9120
59.9060
59.8913
59.9059
59.9814
60.782
60.1483
60.1857
60.2176
60.2130
60.1565
60.867
60.395
59.9892
59.9179
59.8784
59.8726
59.8756
59.8734
59.8954
59.9525
60.222
60.897
60.1388
60.1606
60.1577
60.1461
60.1121
60.678
60.175
59.9946
59.9552
59.9148
59.9088
59.9158
59.9056
59.9108
59.9790
60.774
60.1568
60.1974
60.2294
60.2526
60.2075
60.1369
60.871
60.352
59.9735
59.9199
59.9132
59.9223
59.9153
59.9189
59.9705
60.345
60.939
60.1534
60.1866
60.1833
60.1696
60.1427
60.1002
60.504
60.229
59.9912
59.9508
59.9187
59.9159
59.9083
59.8981
59.9386
60.263
60.1204
60.1648
60.1916
60.2086
60.1898
60.1233
60.705
60.187
59.9632
59.9000
59.8759
59.8900
59.8927
59.8981
59.9310
59.9930
60.650
60.1288
60.1677
60.1856
60.1793
60.1569
60.1215
60.739
60.304
60.41
59.9666
59.9381
59.9412
59.9401
59.9275
59.9507
60.321
60.1234
60.1889
60.2317
60.2676
60.2559
60.1971
60.1313
60.849
60.307
59.9597
59.9169
59.9206
59.9300
59.9200
59.9447
60.42
60.701
60.1384
60.1977
60.2086
60.1974
60.1812
60.1471
60.1021
60.562
60.261
59.9834
59.9353
59.9181
59.9142
59.9084
59.9117
59.9774
60.807
60.1560
60.1888
60.2168
60.2269
60.1861
60.1190
60.670
60.166
59.9535
59.8947
59.8858
59.8971
59.8968
59.9098
59.9651
60.302
60.1000
60.1600
60.1887
60.1862
60.1735
60.1470
60.1064
60.642
60.351
59.9950
59.9566
59.9377
59.9415
59.9338
59.9334
59.9857
60.783
60.1706
60.2275
60.2640
60.2902
60.2513
60.1790
60.1181
60.734
60.138
59.9452
59.9269
59.9300
59.9290
59.9328
59.9661
60.263
60.883
60.1531
60.1888
60.1952
60.1817
60.1525
60.1199
60.784
60.349
60.169
59.9677
59.9372
59.9236
59.9132
59.9033
59.9284
60.102
60.1096
60.1696
60.2040
60.2272
60.2211
60.1578
60.951
60.432
59.9901
59.9180
59.8832
59.8898
59.8928
59.8981
59.9266
59.9920
60.601
60.1266
60.1776
60.1972
60.1908
60.1652
60.1370
60.922
60.485
60.164
59.9745
59.9313
59.9242
59.9252
59.9214
59.9384
60.95
60.1104
60.1874
60.2380
60.2731
60.2839
60.2323
60.1664
60.1119
60.618
59.9946
59.9420
59.9384
59.9303
59.9253
59.9386
59.9917
60.526
60.1224
60.1852
60.2094
60.2017
60.1837
60.1612
60.1189
60.697
60.439
60.58
59.9619
59.9368
59.9311
59.9193
59.9128
59.9631
60.568
60.1440
60.1894
60.2142
60.2303
60.2005
60.1328
60.781
60.258
59.9662
59.9054
59.8854
59.8848
59.8798
59.8881
59.9274
59.9894
60.657
60.1312
60.1769
60.1789
60.1748
60.1487
60.1174
60.638
60.291
59.9993
59.9523
59.9238
59.9244
59.9208
59.9099
59.9463
60.286
60.1229
60.1863
60.2312
60.2619
60.2466
60.1806
60.1198
60.625
60.102
59.9427
59.9101
59.9191
59.9121
59.9145
59.9488
60.68
60.706
60.1408
60.1868
60.2007
60.1912
60.1705
60.1344
60.837
60.345
60.55
59.9624
59.9149
59.8929
59.8976
59.8829
59.8963
59.9786
60.838
60.1581
60.1968
60.2311
60.2388
60.1821
60.1150
60.624
60.134
59.9429
59.8926
59.8881
59.8907
59.8894
59.9003
59.9591
60.287
60.985
60.1559
60.1755
60.1737
60.1604
60.1360
60.965
60.471
60.204
59.9760
59.9317
59.9168
59.9163
59.9094
59.9086
59.9668
60.559
60.1422
60.1941
60.2358
60.2600
60.2289
60.1630
60.1035
60.568
59.9904
59.9287
59.9174
59.9213
59.9141
59.9198
59.9705
60.297
60.921
60.1563
60.1929
60.1986
60.1830
60.1556
60.1111
60.618
60.246
59.9911
59.9500
59.9211
59.9175
59.9099
59.8946
59.9284
60.155
60.1157
60.1713
60.2081
60.2351
60.2194
60.1562
60.975
60.437
59.9887
59.9204
59.8912
59.8904
59.8914
59.8877
59.9177
59.9747
60.460
60.1149
60.1629
60.1779
60.1693
60.1481
60.1226
60.829
60.416
60.177
59.9638
59.9317
59.9278
59.9286
59.9164
59.9412
60.227
60.1156
60.1891
60.2282
60.2642
60.2603
60.2047
60.1430
60.883
60.312
59.9612
59.9237
59.9230
59.9198
59.9137
59.9342
59.9907
60.529
60.1213
60.1769
60.1978
60.1932
60.1705
60.1393
60.962
60.424
60.165
59.9716
59.9283
59.9013
59.8978
59.8833
59.8807
59.9457
60.424
60.1289
60.1746
60.2038
60.2225
60.1822
60.1208
60.684
60.113
59.9430
59.8775
59.8672
59.8764
59.8784
59.8863
59.9348
60.1
60.699
60.1317
60.1628
60.1663
60.1509
60.1338
60.990
60.464
60.191
59.9878
59.9383
59.9230
59.9307
59.9226
59.9102
59.9504
60.384
60.1318
60.1898
60.2316
60.2602
60.2373
60.1711
60.1158
60.620
60.31
59.9355
59.9129
59.9214
59.9148
59.9091
59.9447
60.5
60.624
60.1291
60.1736
60.1803
60.1715
60.1516
60.1166
60.658
60.226
60.16
59.9641
59.9356
59.9158
59.9088
59.8939
59.9133
59.9918
60.980
60.1615
60.2023
60.2290
60.2249
60.1636
60.1033
60.521
59.9991
59.9281
59.8839
59.8843
59.8895
59.8884
59.9154
59.9734
60.311
60.1016
60.1542
60.1734
60.1761
60.1559
60.1301
60.907
60.453
60.238
59.9819
59.9365
59.9255
59.9279
59.9217
59.9269
59.9997
60.951
60.1811
60.2270
60.2643
60.2760
60.2355
60.1735
60.1194
60.663
59.9936
59.9356
59.9212
59.9172
59.9054
59.9114
59.9638
60.253
60.997
60.1618
60.1905
60.1831
60.1693
60.1366
60.947
60.442
60.134
59.9772
59.9341
59.8964
59.8808
59.8700
59.8621
59.9038
59.9934
60.862
60.1347
60.1720
60.1978
60.1726
60.1104
60.610
60.73
59.9450
59.8810
59.8551
59.8585
59.8603
59.8623
59.8967
59.9541
60.136
60.811
60.1128
60.1220
60.1234
60.1075
60.787
60.353
59.9952
59.9639
59.9187
59.8808
59.8815
59.8761
59.8643
59.8978
59.9831
60.769
60.1410
60.1870
60.2186
60.2118
60.1536
60.1003
60.446
59.9888
59.9221
59.8897
59.8957
59.9052
59.9009
59.9207
59.9817
60.415
60.1110
60.1631
60.1741
60.1648
60.1411
60.1023
60.570
60.25
59.9793
59.9376
59.8999
59.8741
59.8703
59.8601
59.8648
59.9281
60.324
60.1040
60.1437
60.1689
60.1763
60.1273
60.642
60.167
59.9629
59.8988
59.8388
59.8259
59.8306
59.8335
59.8501
59.9045
59.9738
60.421
60.1055
60.1343
60.1371
60.1294
60.1036
60.653
60.196
59.9879
59.9530
59.9086
59.8887
59.8840
59.8779
59.8632
59.9216
60.140
60.1071
60.1620
60.2076
60.2333
60.2052
60.1378
60.791
60.220
59.9524
59.8803
59.8562
59.8639
59.8551
59.8555
59.8959
59.9628
60.273
60.971
60.1360
60.1494
60.1366
60.1071
60.681
60.141
59.9666
59.9339
59.8802
59.8424
59.8196
59.8182
59.8043
59.8324
59.9126
60.97
60.742
60.1060
60.1302
60.1195
60.576
60.2
59.9455
59.8865
59.8204
59.7868
59.7871
59.7923
59.7945
59.8201
59.8785
59.9509
60.207
60.697
60.783
60.779
60.708
60.372
59.9949
59.9457
59.9211
59.8774
59.8406
59.8261
59.8346
59.8259
59.8287
59.8911
59.9884
60.687
60.1181
60.1520
60.1646
60.1206
60.535
60.56
59.9492
59.8844
59.8318
59.8232
59.8281
59.8131
59.8250
59.8825
59.9459
60.130
60.788
60.1151
60.1141
60.997
60.650
60.216
59.9686
59.9348
59.9059
59.8550
59.8252
59.8208
59.8120
59.8105
59.8539
59.9465
60.380
60.867
60.1160
60.1382
60.1138
60.525
59.9945
59.9394
59.8894
59.8150
59.7950
59.7943
59.7958
59.7979
59.8302
59.8947
59.9632
60.316
60.730
60.850
60.769
60.598
60.305
59.9829
59.9448
59.9197
59.8727
59.8349
59.8277
59.8339
59.8341
59.8614
59.9449
60.512
60.1183
60.1588
60.1910
60.1857
60.1316
60.710
60.138
59.9576
59.8943
59.8469
59.8522
59.8511
59.8471
59.8734
59.9307
59.9953
60.642
60.1173
60.1324
60.1275
60.1100
60.790
60.288
59.9737
59.9468
59.9004
59.8574
59.8328
59.8333
59.8292
59.8341
59.8984
60.70
60.860
60.1256
60.1507
60.1652
60.1261
60.583
60.57
59.9485
59.8834
59.8191
59.8069
59.8222
59.8220
59.8337
59.8859
59.9531
60.208
60.775
60.1087
60.1118
60.1071
60.802
60.448
59.9974
59.9587
59.9265
59.8802
59.8568
59.8563
59.8574
59.8532
59.9001
59.9944
60.868
60.1438
60.1843
60.2156
60.1931
60.1209
60.598
60.73
59.9467
59.8812
59.8504
59.8567
59.8587
59.8526
59.8888
59.9544
60.166
60.895
60.1302
60.1416
60.1215
60.899
60.501
59.9976
59.9540
59.9292
59.8832
59.8504
59.8361
59.8306
59.8140
59.8389
59.9112
60.129
60.832
60.1150
60.1441
60.1478
60.915
60.180
59.9578
59.8985
59.8318
59.7887
59.7894
59.7919
59.7882
59.8132
59.8747
59.9466
60.170
60.695
60.909
60.946
60.888
60.608
60.197
59.9750
59.9477
59.9019
59.8560
59.8443
59.8548
59.8473
59.8522
59.9095
60.30
60.874
60.1357
60.1715
60.1918
60.1479
60.786
60.266
59.9764
59.9124
59.8492
59.8413
59.8510
59.8495
59.8579
59.9086
59.9778
60.461
60.1083
60.1453
60.1437
60.1270
60.939
60.515
60.6
59.9654
59.9366
59.8895
59.8587
59.8487
59.8308
59.8222
59.8602
59.9399
60.339
60.894
60.1254
60.1574
60.1387
60.719
60.167
59.9624
59.9051
59.8460
59.8146
59.8179
59.8280
59.8310
59.8692
59.9344
60.75
60.700
60.1101
60.1198
60.1166
60.1029
60.649
60.209
59.9766
59.9530
59.9025
59.8658
59.8622
59.8587
59.8457
59.8675
59.9431
60.435
60.1146
60.1650
60.2008
60.2057
60.1482
60.805
60.265
59.9634
59.8918
59.8521
59.8520
59.8489
59.8431
59.8607
59.9178
59.9824
60.543
60.1057
60.1205
60.1189
60.975
60.641
60.210
59.9665
59.9451
59.9047
59.8523
59.8245
59.8230
59.8151
59.8168
59.8655
59.9640
60.514
60.975
60.1320
60.1502
60.1100
60.433
59.9840
59.9280
59.8605
59.7931
59.7786
59.7811
59.7774
59.7877
59.8330
59.9005
59.9647
60.261
60.580
60.654
60.621
60.388
59.9993
59.9621
59.9253
59.8906
59.8468
59.8201
59.8199
59.8128
59.8049
59.8468
59.9328
60.234
60.871
60.1274
60.1483
60.1316
60.662
60.94
59.9591
59.9085
59.8340
59.8110
59.8140
59.8116
59.8131
59.8393
59.9051
59.9683
60.357
60.807
60.960
60.834
60.593
60.176
59.9764
59.9324
59.9111
59.8667
59.8306
59.8038
59.7979
59.7851
59.8008
59.8761
59.9788
60.564
60.993
60.1315
60.1366
60.870
60.240
59.9748
59.9217
59.8560
59.8000
59.7935
59.8023
59.8040
59.8181
59.8724
59.9381
60.88
60.704
60.1026
60.1011
60.972
60.666
60.213
59.9704
59.9367
59.8972
59.8566
59.8451
59.8482
59.8503
59.8548
59.9095
60.12
60.872
60.1375
60.1787
60.2043
60.1695
60.1045
60.515
60.26
59.9417
59.8758
59.8636
59.8685
59.8638
59.8656
59.9080
59.9706
60.419
60.1088
60.1444
60.1489
60.1386
60.1191
60.773
60.321
59.9918
59.9648
59.9246
59.8867
59.8706
59.8717
59.8586
59.8916
59.9738
60.741
60.1285
60.1548
60.1809
60.1708
60.1085
60.373
59.9861
59.9376
59.8576
59.8170
59.8150
59.8146
59.8126
59.8398
59.9080
59.9746
60.495
60.969
60.1103
60.1058
60.898
60.517
60.37
59.9574
59.9293
59.8885
59.8512
59.8456
59.8511
59.8265
59.8432
59.9211
60.245
60.1148
60.1602
60.1962
60.2077
60.1496
60.811
60.325
59.9764
59.9098
59.8565
59.8533
59.8536
59.8503
59.8687
59.9220
59.9865
60.491
60.1092
60.1326
60.1299
60.1156
60.814
60.339
59.9752
59.9442
59.9040
59.8597
59.8305
59.8199
59.8115
59.8058
59.8513
59.9517
60.394
60.886
60.1197
60.1452
60.1133
60.478
59.9949
59.9433
59.8831
59.8129
59.7903
59.7979
59.7980
59.8098
59.8485
59.9188
59.9866
60.513
60.910
60.976
60.935
60.749
60.409
59.9985
59.9603
59.9303
59.8901
59.8630
59.8664
59.8645
59.8539
59.8881
59.9745
60.744
60.1314
60.1773
60.2180
60.2037
60.1371
60.758
60.216
59.9615
59.8870
59.8503
59.8561
59.8570
59.8578
59.8840
59.9469
60.180
60.932
60.1433
60.1532
60.1420
60.1127
60.807
60.311
59.9823
59.9605
59.9133
59.8778
59.8605
59.8633
59.8556
59.8672
59.9414
60.435
60.1253
60.1606
60.1922
60.2018
60.1541
60.856
60.316
59.9801
59.9145
59.8615
59.8507
59.8620
59.8625
59.8756
59.9233
59.9868
60.624
60.1178
60.1437
60.1468
60.1343
60.1073
60.670
60.170
59.9847
59.9458
59.8968
59.8827
59.8885
59.8831
59.8779
59.9337
60.221
60.1131
60.1603
60.1990
60.2239
60.1924
60.1234
60.692
60.126
59.9560
59.8842
59.8626
59.8647
59.8614
59.8677
59.9059
59.9770
60.523
60.1257
60.1652
60.1782
60.1643
60.1367
60.981
60.416
60.16
59.9708
59.9114
59.8718
59.8594
59.8519
59.8440
59.8660
59.9497
60.457
60.1056
60.1403
60.1726
60.1661
60.1040
60.458
59.9854
59.9297
59.8551
59.8196
59.8202
59.8257
59.8289
59.8502
59.9128
59.9785
60.539
60.1005
60.1189
60.1201
60.1040
60.802
60.384
59.9956
59.9682
59.9214
59.8792
59.8685
59.8672
59.8555
59.8598
59.9288
60.258
60.1082
60.1540
60.1952
60.2149
60.1682
60.1070
60.610
60.15
59.9274
59.8658
59.8595
59.8621
59.8570
59.8698
59.9194
59.9880
60.533
60.1199
60.1471
60.1505
60.1374
60.1088
60.638
60.122
59.9856
59.9536
59.9066
59.8761
59.8642
59.8580
59.8447
59.8906
59.9883
60.761
60.1247
60.1633
60.1914
60.1639
60.965
60.465
59.9936
59.9247
59.8480
59.8330
59.8373
59.8296
59.8316
59.8692
59.9360
60.36
60.733
60.1148
60.1307
60.1277
60.1137
60.779
60.326
59.9934
59.9615
59.9125
59.8858
59.8843
59.8847
59.8713
59.9032
59.9886
60.864
60.1565
60.1978
60.2288
60.2191
60.1647
60.1060
60.529
59.9958
59.9206
59.8800
59.8797
59.8724
59.8707
59.8944
59.9589
60.226
60.975
60.1501
60.1682
60.1605
60.1358
60.997
60.491
60.48
59.9734
59.9231
59.8751
59.8530
59.8451
59.8335
59.8478
59.9180
60.189
60.991
60.1442
60.1795
60.1887
60.1405
60.716
60.198
59.9579
59.8878
59.8319
59.8204
59.8207
59.8148
59.8299
59.8836
59.9467
60.237
60.819
60.1089
60.1171
60.1051
60.766
60.330
59.9848
59.9516
59.9168
59.8711
59.8516
59.8562
59.8512
59.8518
59.9041
60.30
60.1029
60.1512
60.1936
60.2235
60.1938
60.1242
60.668
60.70
59.9365
59.8671
59.8461
59.8452
59.8388
59.8371
59.8781
59.9508
60.211
60.884
60.1303
60.1357
60.1289
60.1099
60.712
60.147
59.9779
59.9413
59.8920
59.8572
59.8492
59.8472
59.8355
59.8694
59.9540
60.544
60.1137
60.1470
60.1755
60.1702
60.1053
60.431
59.9893
59.9254
59.8515
59.8164
59.8239
59.8266
59.8309
59.8580
59.9185
59.9848
60.508
60.951
60.1107
60.1053
60.941
60.675
60.300
59.9859
59.9639
59.9221
59.8824
59.8777
59.8763
59.8679
59.8801
59.9491
60.460
60.1239
60.1721
60.2143
60.2295
60.1789
60.1122
60.610
60.38
59.9302
59.8798
59.8795
59.8791
59.8775
59.8882
59.9425
60.79
60.796
60.1408
60.1690
60.1644
60.1537
60.1264
60.900
60.439
60.101
59.9675
59.9167
59.8862
59.8788
59.8714
59.8727
59.9195
60.129
60.1050
60.1565
60.1875
60.2043
60.1745
60.1103
60.567
60.7
59.9387
59.8666
59.8409
59.8465
59.8461
59.8524
59.8996
59.9611
60.336
60.1025
60.1401
60.1562
60.1515
60.1303
60.907
60.443
60.20
59.9682
59.9145
59.8883
59.8943
59.8906
59.8867
59.9261
60.113
60.1132
60.1759
60.2178
60.2494
60.2396
60.1689
60.1011
60.506
59.9935
59.9226
59.8865
59.8826
59.8789
59.8784
59.9053
59.9643
60.345
60.1045
60.1636
60.1787
60.1777
60.1547
60.1195
60.753
60.250
59.9994
59.9475
59.9064
59.8830
59.8801
59.8669
59.8798
59.9452
60.513
60.1254
60.1575
60.1833
60.1899
60.1404
60.666
60.169
59.9618
59.8907
59.8348
59.8286
59.8329
59.8334
59.8428
59.8958
59.9661
60.369
60.962
60.1254
60.1302
60.1242
60.998
60.561
59.9991
59.9675
59.9225
59.8773
59.8579
59.8589
59.8526
59.8539
59.9069
60.20
60.925
60.1474
60.1837
60.2097
60.1798
60.1063
60.466
59.9941
59.9289
59.8697
59.8545
59.8607
59.8598
59.8660
59.9104
59.9739
60.383
60.1058
60.1493
60.1539
60.1404
60.1115
60.642
60.160
59.9788
59.9415
59.8948
59.8595
59.8447
59.8427
59.8343
59.8537
59.9368
60.392
60.990
60.1277
60.1591
60.1534
60.898
60.318
59.9779
59.9239
59.8548
59.8165
59.8142
59.8132
59.8147
59.8390
59.8997
59.9716
60.388
60.882
60.1078
60.1038
60.897
60.627
60.212
59.9788
59.9564
59.9027
59.8648
59.8589
59.8629
59.8484
59.8586
59.9323
60.360
60.1135
60.1588
60.1977
60.2094
60.1585
60.910
60.369
59.9774
59.9081
59.8535
59.8491
59.8560
59.8495
59.8708
59.9251
59.9832
60.535
60.1160
60.1380
60.1290
60.1066
60.745
60.382
59.9854
59.9486
59.9085
59.8598
59.8305
59.8287
59.8230
59.8157
59.8707
59.9669
60.575
60.1038
60.1383
60.1562
60.1213
60.515
59.9949
59.9329
59.8711
59.8007
59.7811
59.7841
59.7820
59.7798
59.8175
59.8878
59.9537
60.206
60.609
60.700
60.674
60.423
60.81
59.9589
59.9123
59.8772
59.8252
59.7905
59.7996
59.7972
59.7895
59.8218
59.9053
60.64
60.759
60.1214
60.1590
60.1503
60.917
60.304
59.9747
59.9159
59.8433
59.8058
59.8053
59.8059
59.8022
59.8335
59.9006
59.9708
60.445
60.933
60.1073
60.938
60.668
60.309
59.9774
59.9245
59.8930
59.8441
59.8071
59.7848
59.7822
59.7722
59.7879
59.8557
59.9531
60.336
60.694
60.1029
60.1104
60.652
59.9969
59.9402
59.8802
59.8127
59.7462
59.7369
59.7413
59.7461
59.7609
59.8152
59.8847
59.9612
60.262
60.633
60.683
60.589
60.375
59.9962
59.9489
59.9159
59.8804
59.8315
59.8104
59.8153
59.8135
59.8091
59.8544
59.9433
60.360
60.980
60.1396
60.1711
60.1425
60.784
60.220
59.9701
59.9131
59.8464
59.8241
59.8318
59.8274
59.8337
59.8675
59.9317
59.9987
60.619
60.1006
60.1071
60.961
60.705
60.303
59.9822
59.9283
59.9017
59.8547
59.8111
59.7971
59.7948
59.7817
59.8017
59.8828
59.9834
60.547
60.859
60.1185
60.1143
60.537
59.9819
59.9306
59.8761
59.8085
59.7660
59.7689
59.7783
59.7799
59.7984
59.8589
59.9335
60.24
60.545
60.803
60.782
60.649
60.357
59.9915
59.9419
59.9088
59.8750
59.8293
59.8166
59.8253
59.8223
59.8341
59.8998
59.9957
60.828
60.1300
60.1643
60.1841
60.1413
60.710
60.102
59.9551
59.8891
59.8249
59.8102
59.8114
59.8114
59.8172
59.8627
59.9285
59.9953
60.627
60.973
60.945
60.733
60.453
60.40
59.9560
59.9227
59.8908
59.8446
59.8235
59.8257
59.8233
59.8080
59.8458
59.9318
60.291
60.751
60.1093
60.1292
60.1145
60.480
59.9854
59.9370
59.8823
59.8135
59.7841
59.7788
59.7842
59.7841
59.8232
59.8805
59.9487
60.188
60.645
60.867
60.851
60.683
60.405
59.9999
59.9583
59.9267
59.8758
59.8446
59.8462
59.8490
59.8403
59.8612
59.9354
60.466
60.1229
60.1670
60.1983
60.2011
60.1518
60.875
60.322
59.9724
59.9057
59.8564
59.8574
59.8609
59.8541
59.8759
59.9332
59.9941
60.602
60.1207
60.1458
60.1478
60.1308
60.952
60.513
59.9983
59.9707
59.9310
59.8813
59.8565
59.8484
59.8359
59.8321
59.8935
59.9929
60.798
60.1234
60.1540
60.1797
60.1430
60.736
60.233
59.9625
59.9014
59.8403
59.8269
59.8352
59.8299
59.8399
59.8806
59.9431
60.155
60.793
60.1159
60.1286
60.1258
60.1066
60.762
60.174
59.9754
59.9443
59.8947
59.8718
59.8767
59.8790
59.8731
59.9121
60.11
60.978
60.1572
60.1934
60.2291
60.2180
60.1538
60.904
60.342
59.9761
59.9040
59.8731
59.8785
59.8783
59.8808
59.9150
59.9764
60.444
60.1071
60.1534
60.1650
60.1573
60.1326
60.1012
60.522
60.11
59.9762
59.9325
59.8925
59.8793
59.8723
59.8637
59.8809
59.9562
60.580
60.1229
60.1567
60.1822
60.1853
60.1342
60.703
60.197
59.9680
59.8994
59.8459
59.8383
59.8496
59.8482
59.8669
59.9279
59.9890
60.578
60.1171
60.1420
60.1432
60.1350
60.1083
60.636
60.139
59.9880
59.9492
59.9021
59.8877
59.9015
59.8944
59.8973
59.9546
60.501
60.1367
60.1797
60.2187
60.2433
60.2059
60.1380
60.835
60.267
59.9657
59.9008
59.8847
59.8928
59.8831
59.8853
59.9338
59.9959
60.617
60.1272
60.1669
60.1686
60.1563
60.1259
60.803
60.268
59.9951
59.9609
59.9145
59.8747
59.8673
59.8662
59.8476
59.8763
59.9649
60.605
60.1144
60.1426
60.1770
60.1687
60.1078
60.552
59.9991
59.9409
59.8715
59.8338
59.8338
59.8375
59.8406
59.8652
59.9304
59.9952
60.642
60.1062
60.1227
60.1200
60.1049
60.698
60.253
59.9792
59.9518
59.9072
59.8755
59.8728
59.8753
59.8607
59.8822
59.9566
60.592
60.1243
60.1699
60.2028
60.2049
60.1510
60.861
60.340
59.9744
59.9046
59.8526
59.8573
59.8598
59.8552
59.8650
59.9184
59.9868
60.589
60.1231
60.1521
60.1456
60.1198
60.844
60.370
59.9876
59.9593
59.9221
59.8746
59.8507
59.8487
59.8426
59.8378
59.8967
59.9916
60.821
60.1282
60.1553
60.1778
60.1426
60.689
60.104
59.9515
59.8880
59.8232
59.8060
59.8101
59.8109
59.8235
59.8699
59.9357
60.92
60.784
60.1099
60.1156
60.1107
60.952
60.600
60.84
59.9684
59.9339
59.8837
59.8551
59.8598
59.8552
59.8469
59.8895
59.9764
60.757
60.1374
60.1783
60.2144
60.2004
60.1300
60.662
60.172
59.9555
59.8815
59.8485
59.8551
59.8563
59.8566
59.8882
59.9533
60.212
60.904
60.1466
60.1536
60.1501
60.1274
60.952
60.468
59.9942
59.9681
59.9168
59.8734
59.8528
59.8483
59.8372
59.8582
59.9297
60.294
60.989
60.1384
60.1664
60.1705
60.1135
60.511
59.9999
59.9436
59.8700
59.8161
59.8029
59.8062
59.8095
59.8273
59.8835
59.9532
60.196
60.816
60.1051
60.1033
60.928
60.666
60.262
59.9759
59.9519
59.9104
59.8643
59.8524
59.8562
59.8531
59.8553
59.9101
60.116
60.1016
60.1568
60.1910
60.2146
60.1787
60.1041
60.489
59.9886
59.9230
59.8559
59.8484
59.8531
59.8459
59.8568
59.9106
59.9817
60.496
60.1169
60.1540
60.1543
60.1351
60.1105
60.672
60.78
59.9629
59.9343
59.8863
59.8546
59.8500
59.8435
59.8326
59.8671
59.9597
60.589
60.1158
60.1512
60.1734
60.1580
60.922
60.275
59.9762
59.9207
59.8476
59.8096
59.8107
59.8178
59.8198
59.8533
59.9209
59.9867
60.548
60.1098
60.1303
60.1240
60.1075
60.742
60.297
59.9877
59.9602
59.9090
59.8715
59.8676
59.8714
59.8619
59.8827
59.9581
60.549
60.1256
60.1680
60.2056
60.2067
60.1552
60.877
60.331
59.9790
59.9103
59.8641
59.8560
59.8588
59.8508
59.8693
59.9173
59.9795
60.490
60.1089
60.1352
60.1350
60.1153
60.847
60.420
59.9903
59.9630
59.9219
59.8721
59.8493
59.8475
59.8334
59.8282
59.8864
59.9834
60.719
60.1149
60.1434
60.1659
60.1344
60.652
60.89
59.9513
59.8948
59.8278
59.8065
59.8137
59.8155
59.8188
59.8631
59.9281
60.5
60.635
60.1030
60.1137
60.1051
60.882
60.529
60.26
59.9625
59.9359
59.8845
59.8598
59.8625
59.8661
59.8606
59.8999
59.9812
60.766
60.1411
60.1806
60.2107
60.1953
60.1292
60.702
60.211
59.9686
59.8946
59.8638
59.8719
59.8727
59.8739
59.8997
59.9676
60.363
60.1046
60.1513
60.1686
60.1618
60.1385
60.911
60.350
59.9880
59.9600
59.9053
59.8645
59.8472
59.8427
59.8435
59.8568
59.9259
60.292
60.1059
60.1428
60.1735
60.1771
60.1325
60.608
59.9990
59.9437
59.8757
59.8182
59.8000
59.8068
59.8103
59.8300
59.8821
59.9435
60.145
60.728
60.1042
60.1084
60.1015
60.737
60.338
59.9864
59.9585
59.9243
59.8742
59.8590
59.8643
59.8603
59.8560
59.9112
60.120
60.962
60.1536
60.1956
60.2197
60.1876
60.1170
60.560
60.4
59.9347
59.8644
59.8501
59.8492
59.8426
59.8534
59.8957
59.9588
60.274
60.936
60.1361
60.1427
60.1308
60.1051
60.644
60.167
59.9772
59.9505
59.9082
59.8698
59.8543
59.8507
59.8407
59.8647
59.9481
60.374
60.1006
60.1235
60.1504
60.1343
60.755
60.123
59.9607
59.9041
59.8311
59.7957
59.8045
59.8113
59.8086
59.8395
59.9088
59.9712
60.414
60.889
60.1079
60.1076
60.916
60.549
60.88
59.9577
59.9271
59.8824
59.8418
59.8378
59.8478
59.8400
59.8512
59.9320
60.357
60.1116
60.1566
60.1932
60.2002
60.1503
60.858
60.246
59.9648
59.8923
59.8405
59.8410
59.8457
59.8400
59.8561
59.9137
59.9777
60.492
60.1164
60.1463
60.1437
60.1228
60.843
60.395
59.9794
59.9477
59.9065
59.8625
59.8364
59.8294
59.8229
59.8208
59.8654
59.9523
60.481
60.1015
60.1318
60.1590
60.1221
60.523
59.9997
59.9424
59.8826
59.8125
59.7938
59.8029
59.8060
59.8104
59.8519
59.9098
59.9803
60.534
60.908
60.983
60.953
60.774
60.440
60.1
59.9661
59.9312
59.8817
59.8441
59.8407
59.8438
59.8345
59.8657
59.9519
60.533
60.1241
60.1631
60.1946
60.1903
60.1234
60.633
60.79
59.9513
59.8809
59.8416
59.8421
59.8425
59.8390
59.8688
59.9251
59.9826
60.559
60.1080
60.1227
60.1135
60.911
60.598
60.146
59.9596
59.9392
59.8959
59.8546
59.8353
59.8291
59.8237
59.8255
59.8947
60.17
60.862
60.1290
60.1562
60.1659
60.1195
60.565
60.38
59.9506
59.8828
59.8195
59.8087
59.8079
59.8078
59.8168
59.8660
59.9300
60.8
60.621
60.913
60.895
60.789
60.590
60.185
59.9697
59.9410
59.9035
59.8558
59.8358
59.8387
59.8393
59.8397
59.8945
59.9841
60.767
60.1365
60.1798
60.2041
60.1754
60.1042
60.447
59.9910
59.9278
59.8535
59.8357
59.8419
59.8387
59.8359
59.8810
59.9442
60.121
60.820
60.1266
60.1301
60.1204
60.877
60.484
59.9921
59.9494
59.9216
59.8735
59.8399
59.8318
59.8359
59.8322
59.8612
59.9441
60.501
60.1076
60.1451
60.1735
60.1701
60.1075
60.399
59.9839
59.9284
59.8491
59.8088
59.8105
59.8195
59.8199
59.8445
59.9086
59.9788
60.443
60.939
60.1142
60.1111
60.965
60.676
60.232
59.9829
59.9473
59.9017
59.8611
59.8545
59.8595
59.8483
59.8560
59.9268
60.251
60.1016
60.1508
60.1880
60.2118
60.1617
60.809
60.285
59.9723
59.8993
59.8364
59.8357
59.8430
59.8373
59.8520
59.9071
59.9784
60.517
60.1183
60.1521
60.1511
60.1374
60.961
60.567
60.12
59.9606
59.9288
59.8865
59.8578
59.8529
59.8458
59.8417
59.8882
59.9827
60.730
60.1190
60.1506
60.1728
60.1441
60.783
60.209
59.9692
59.9110
59.8457
59.8219
59.8320
59.8331
59.8362
59.8738
59.9422
60.137
60.836
60.1307
60.1404
60.1304
60.1053
60.648
60.157
59.9719
59.9426
59.8905
59.8563
59.8607
59.8732
59.8614
59.8926
59.9687
60.615
60.1280
60.1692
60.2009
60.1930
60.1286
60.595
60.20
59.9447
59.8634
59.8185
59.8266
59.8338
59.8381
59.8585
59.9203
59.9901
60.595
60.1093
60.1207
60.1121
60.884
60.483
60.6
59.9517
59.9165
59.8724
59.8329
59.8139
59.8111
59.8048
59.8104
59.8710
59.9731
60.467
60.830
60.1094
60.1179
60.747
60.76
59.9540
59.8990
59.8399
59.7770
59.7711
59.7769
59.7794
59.7876
59.8410
59.9074
59.9730
60.293
60.583
60.618
60.545
60.224
59.9815
59.9361
59.9060
59.8725
59.8285
59.8070
59.8144
59.8151
59.8131
59.8578
59.9434
60.319
60.878
60.1231
60.1478
60.1187
60.533
59.9936
59.9420
59.8836
59.8158
59.7896
59.7967
59.8031
59.8026
59.8349
59.8967
59.9565
60.213
60.691
60.801
60.697
60.456
60.84
59.9651
59.9176
59.8932
59.8498
59.8126
59.7979
59.7961
59.7867
59.8025
59.8712
59.9732
60.372
60.728
60.996
60.1005
60.474
59.9898
59.9315
59.8791
59.8164
59.7658
59.7631
59.7724
59.7719
59.7843
59.8443
59.9061
59.9762
60.332
60.583
60.542
60.423
60.185
59.9752
59.9243
59.8987
59.8545
59.8083
59.7892
59.7954
59.7937
59.7982
59.8657
59.9701
60.573
60.1044
60.1342
60.1497
60.1144
60.466
59.9910
59.9369
59.8720
59.8081
59.7933
59.8014
59.8025
59.8081
59.8490
59.9149
59.9760
60.437
60.790
60.856
60.733
60.386
59.9946
59.9511
59.9119
59.8819
59.8400
59.8007
59.7851
59.7808
59.7702
59.8029
59.8920
59.9954
60.479
60.770
60.952
60.788
60.114
59.9481
59.8952
59.8452
59.7816
59.7445
59.7509
59.7589
59.7572
59.7825
59.8469
59.9124
59.9797
60.226
60.391
60.273
60.105
59.9754
59.9288
59.8882
59.8605
59.8193
59.7854
59.7857
59.7918
59.7892
59.8053
59.8768
59.9825
60.588
60.1085
60.1430
60.1583
60.1116
60.404
59.9842
59.9242
59.8569
59.8041
59.8038
59.8105
59.8057
59.8255
59.8771
59.9470
60.174
60.756
60.1088
60.1034
60.816
60.431
59.9979
59.9410
59.9090
59.8693
59.8280
59.8030
59.7931
59.7911
59.7875
59.8421
59.9406
60.331
60.814
60.1107
60.1376
60.1124
60.405
59.9735
59.9193
59.8598
59.7950
59.7751
59.7772
59.7827
59.7895
59.8237
59.8909
59.9637
60.336
60.812
60.960
60.908
60.634
60.278
59.9792
59.9393
59.9068
59.8627
59.8338
59.8329
59.8407
59.8357
59.8655
59.9490
60.482
60.1187
60.1601
60.1866
60.1770
60.1107
60.397
59.9857
59.9259
59.8508
59.8159
59.8206
59.8249
59.8247
59.8553
59.9139
59.9809
60.487
60.1101
60.1320
60.1198
60.957
60.565
60.29
59.9471
59.9191
59.8726
59.8305
59.8073
59.8074
59.8047
59.8069
59.8772
59.9788
60.588
60.965
60.1250
60.1367
60.907
60.220
59.9660
59.9071
59.8514
59.7924
59.7921
59.8008
59.8075
59.8191
59.8680
59.9341
60.31
60.681
60.965
60.996
60.888
60.681
60.239
59.9710
59.9337
59.8921
59.8395
59.8199
59.8257
59.8235
59.8236
59.8745
59.9710
60.706
60.1265
60.1648
60.1912
60.1660
60.901
60.293
59.9703
59.9107
59.8402
59.8154
59.8213
59.8239
59.8300
59.8655
59.9338
60.34
60.753
60.1222
60.1291
60.1090
60.789
60.335
59.9795
59.9330
59.9021
59.8492
59.8074
59.7949
59.7964
59.7937
59.8189
59.8959
59.9967
60.683
60.1051
60.1324
60.1291
60.626
59.9984
59.9455
59.8937
59.8234
59.7768
59.7730
59.7802
59.7869
59.8072
59.8593
59.9287
59.9997
60.545
60.793
60.740
60.561
60.274
59.9876
59.9385
59.9127
59.8691
59.8264
59.8149
59.8200
59.8127
59.8177
59.8898
59.9955
60.803
60.1257
60.1689
60.1791
60.1407
60.738
60.226
59.9643
59.8982
59.8367
59.8335
59.8391
59.8344
59.8450
59.9013
59.9694
60.376
60.955
60.1284
60.1279
60.1043
60.676
60.183
59.9721
59.9440
59.9100
59.8623
59.8345
59.8249
59.8158
59.8018
59.8379
59.9318
60.323
60.863
60.1156
60.1414
60.1256
60.648
60.55
59.9497
59.9004
59.8289
59.7904
59.8031
59.8042
59.8085
59.8363
59.8990
59.9664
60.350
60.783
60.933
60.890
60.683
60.367
59.9892
59.9454
59.9185
59.8740
59.8394
59.8329
59.8392
59.8299
59.8478
59.9309
60.297
60.1005
60.1390
60.1698
60.1725
60.1159
60.585
60.98
59.9597
59.8913
59.8444
59.8457
59.8505
59.8398
59.8487
59.9026
59.9642
60.319
60.920
60.1178
60.1096
60.873
60.562
60.129
59.9626
59.9356
59.8946
59.8489
59.8307
59.8278
59.8221
59.8229
59.8781
59.9722
60.577
60.1044
60.1362
60.1523
60.1144
60.482
59.9976
59.9420
59.8828
59.8138
59.7939
59.7980
59.7998
59.8099
59.8517
59.9144
59.9823
60.494
60.818
60.874
60.764
60.588
60.203
59.9741
59.9462
59.9103
59.8630
59.8386
59.8401
59.8385
59.8359
59.8750
59.9637
60.557
60.1141
60.1523
60.1798
60.1662
60.1008
60.459
59.9962
59.9328
59.8548
59.8231
59.8277
59.8231
59.8210
59.8540
59.9178
59.9848
60.582
60.1074
60.1179
60.1114
60.857
60.527
60.65
59.9560
59.9339
59.8854
59.8377
59.8106
59.8115
59.8027
59.8112
59.8865
59.9805
60.522
60.949
60.1227
60.1314
60.880
60.277
59.9753
59.9162
59.8470
59.7934
59.7866
59.7959
59.7912
59.8106
59.8643
59.9395
60.117
60.682
60.946
60.968
60.850
60.656
60.269
59.9740
59.9503
59.9114
59.8735
59.8587
59.8615
59.8514
59.8463
59.9039
59.9980
60.872
60.1432
60.1841
60.2020
60.1669
60.940
60.373
59.9776
59.9169
59.8423
59.8282
59.8375
59.8300
59.8347
59.8734
59.9414
60.142
60.852
60.1247
60.1247
60.1120
60.835
60.471
59.9903
59.9516
59.9238
59.8710
59.8351
59.8215
59.8129
59.7981
59.8243
59.9092
60.81
60.748
60.1077
60.1338
60.1306
60.736
60.170
59.9605
59.9026
59.8330
59.7922
59.7948
59.7903
59.7958
59.8241
59.8824
59.9502
60.112
60.565
60.742
60.701
60.580
60.255
59.9828
59.9392
59.9146
59.8749
59.8409
59.8337
59.8381
59.8272
59.8341
59.9052
60.42
60.852
60.1260
60.1613
60.1713
60.1219
60.491
59.9979
59.9447
59.8721
59.8184
59.8128
59.8100
59.8109
59.8251
59.8793
59.9418
60.133
60.669
60.980
60.978
60.824
60.550
60.69
59.9574
59.9265
59.8840
59.8383
59.8088
59.8062
59.7939
59.7863
59.8311
59.9298
60.230
60.727
60.1051
60.1209
60.936
60.284
59.9742
59.9224
59.8696
59.8035
59.7778
59.7783
59.7827
59.7794
59.8199
59.8897
59.9554
60.263
60.713
60.880
60.859
60.694
60.355
59.9894
59.9576
59.9317
59.8834
59.8476
59.8520
59.8463
59.8319
59.8576
59.9418
60.405
60.1160
60.1554
60.1917
60.1941
60.1321
60.727
60.204
59.9685
59.8931
59.8524
59.8532
59.8506
59.8459
59.8676
59.9351
60.17
60.641
60.1301
60.1541
60.1447
60.1224
60.834
60.363
59.9849
59.9548
59.9063
59.8638
59.8421
59.8385
59.8330
59.8424
59.9097
60.63
60.916
60.1255
60.1597
60.1758
60.1317
60.703
60.159
59.9691
59.9055
59.8467
59.8382
59.8398
59.8403
59.8547
59.9110
59.9761
60.436
60.1064
60.1305
60.1356
60.1283
60.1066
60.709
60.188
59.9828
59.9386
59.8893
59.8681
59.8736
59.8712
59.8701
59.9216
60.188
60.1097
60.1638
60.2021
60.2258
60.1985
60.1324
60.784
60.270
59.9649
59.8877
59.8662
59.8657
59.8553
59.8582
59.8975
59.9641
60.344
60.1006
60.1431
60.1516
60.1446
60.1204
60.715
60.261
59.9943
59.9693
59.9218
59.8850
59.8713
59.8693
59.8576
59.8783
59.9551
60.535
60.1089
60.1434
60.1757
60.1695
60.1140
60.526
60.54
59.9555
59.8878
59.8432
59.8409
59.8432
59.8324
59.8522
59.9216
59.9893
60.586
60.1166
60.1334
60.1338
60.1171
60.880
60.496
60.67
59.9844
59.9433
59.9078
59.8930
59.8969
59.8883
59.8940
59.9641
60.642
60.1477
60.1931
60.2304
60.2409
60.2029
60.1390
60.876
60.304
59.9702
59.9157
59.9173
59.9206
59.9129
59.9280
59.9727
60.356
60.982
60.1649
60.1957
60.1849
60.1711
60.1379
60.891
60.416
60.68
59.9657
59.9226
59.8960
59.8914
59.8896
59.8875
59.9361
60.360
60.1230
60.1742
60.2017
60.2263
60.1951
60.1319
60.761
60.266
59.9762
59.9110
59.8971
59.9036
59.8994
59.9032
59.9412
60.63
60.722
60.1338
60.1771
60.1811
60.1752
60.1514
60.1116
60.629
60.194
59.9957
59.9544
59.9257
59.9191
59.9265
59.9243
59.9638
60.491
60.1534
60.2143
60.2522
60.2833
60.2760
60.2114
60.1456
60.968
60.379
59.9622
59.9247
59.9277
59.9322
59.9308
59.9589
60.199
60.873
60.1526
60.2014
60.2125
60.2110
60.1933
60.1557
60.1081
60.681
60.422
59.9992
59.9629
59.9443
59.9445
59.9400
59.9519
60.145
60.1102
60.1823
60.2178
60.2495
60.2546
60.2081
60.1333
60.814
60.279
59.9642
59.9122
59.9099
59.9211
59.9215
59.9327
59.9883
60.550
60.1209
60.1791
60.2065
60.2128
60.1984
60.1706
60.1263
60.781
60.470
60.71
59.9687
59.9575
59.9693
59.9634
59.9656
60.281
60.1257
60.2120
60.2614
60.2982
60.3144
60.2720
60.1989
60.1448
60.918
60.256
59.9577
59.9481
59.9569
59.9523
59.9671
60.175
60.835
60.1500
60.2157
60.2517
60.2605
60.2482
60.2212
60.1861
60.1430
60.1089
60.863
60.489
60.375
60.435
60.559
60.621
60.1203
60.2288
60.3386
60.4074
60.4556
60.4971
60.4922
60.4407
60.3941
60.3561
60.3223
60.2797
60.2869
60.3186
60.3502
60.3853
60.4532
60.5465
60.6382
60.7299
60.7946
60.8294
60.8500
60.8486
60.8275
60.8077
60.8135
60.8159
60.8161
60.8412
60.8935
60.9260
60.9583
61.473
61.1811
61.3142
61.4057
61.4867
61.5380
61.5430
61.5178
61.5037
61.4975
61.4775
61.4677
61.5283
61.5856
61.6307
61.6969
61.8062
61.9168
62.332
62.1441
62.2119
62.2515
62.2779
62.2916
62.2957
62.3155
62.3506
62.3639
62.3973
62.4506
62.5066
62.5544
62.6636
62.8194
62.9757
63.848
63.1893
63.2678
63.2856
63.2807
63.2978
63.3238
63.3206
63.3564
63.4316
63.5073
63.5817
63.6836
63.8233
63.9753
64.1225
64.2345
64.3069
64.3670
64.4035
64.4431
64.4815
64.5456
64.5860
64.6417
64.7278
64.8070
64.8724
65.122
65.1993
65.3717
65.5105
65.6373
65.7244
65.7505
65.7730
65.8169
65.8541
65.8897
65.9840
66.913
66.1774
66.2804
66.4342
66.6002
66.7696
66.9138
67.169
67.1022
67.1600
67.2128
67.2767
67.3628
67.4269
67.4987
67.5937
67.6817
67.7735
67.9556
68.1673
68.3498
68.4957
68.6324
68.7069
68.7432
68.8020
68.8669
68.9145
69.147
69.1474
69.2626
69.3807
69.5531
69.7360
69.9234
70.787
70.2026
70.3066
70.3860
70.4561
70.5571
70.6471
70.7356
70.8558
70.9782
71.715
71.2352
71.4689
71.6770
71.8620
72.241
72.1251
72.1794
72.2627
72.3539
72.4260
72.5603
72.6939
72.8185
72.9802
73.1813
73.3907
73.5944
73.7430
73.8653
73.9658
74.504
74.1604
74.2841
74.3861
74.5040
74.6347
74.7481
74.9434
75.2082
75.4283
75.6241
75.7926
75.8767
75.9543
76.645
76.1584
76.2858
76.4529
76.5943
76.7482
76.9581
77.1888
77.4030
77.5686
77.7106
77.8287
77.9304
78.758
78.2027
78.3346
78.4912
78.6197
78.7696
79.232
79.2785
79.4988
79.7042
79.8200
79.9058
80.295
80.1423
80.2837
80.4744
80.6241
80.7956
81.211
81.2643
81.4917
81.6668
81.8074
81.9299
82.685
82.2381
82.3871
82.5481
82.6976
82.8426
83.997
83.3883
83.6224
83.8441
83.9702
84.736
84.2136
84.3368
84.5066
84.6958
84.8620
85.708
85.3298
85.5882
85.7986
85.9747
86.1194
86.2601
86.4403
86.5862
86.7635
86.9327
87.816
87.3540
87.6610
87.9152
88.1490
88.2707
88.3873
88.5497
88.6911
88.9114
89.969
89.2849
89.5447
89.8246
90.703
90.2583
90.4199
90.5585
90.7603
90.9395
91.1265
91.2996
91.4594
91.7612
92.685
92.3223
92.5441
92.6623
92.8180
92.9828
93.1668
93.3885
93.5736
93.8169
94.996
94.3646
94.5799
94.7675
94.9163
95.1163
95.3012
95.4973
95.6841
95.8498
96.1753
96.4887
96.7691
96.9623
97.898
97.2738
97.4487
97.6921
97.8901
98.990
98.3956
98.7031
98.9465
99.1406
99.3045
99.5201
99.7358
99.9486
100.1346
100.3222
100.6701
100.9888
101.2620
101.4374
101.5831
101.7818
101.9829
102.2342
102.4260
102.6854
102.9978
103.2633
103.4849
103.6551
103.8461
104.790
104.2952
104.5110
104.6809
105.177
105.3417
105.6411
105.8156
105.9863
106.1823
106.4260
106.6785
106.8938
107.1941
107.5294
107.7924
108.26
108.1940
108.4655
108.7018
108.9359
109.1109
109.4197
109.7785
110.891
110.2860
110.4500
110.6638
110.8983
111.1478
111.3687
111.6777
111.9945
112.2513
112.4560
112.6399
112.8902
113.1193
113.3335
113.5315
113.9078
114.2518
114.5499
114.7048
114.9261
115.1525
115.4508
115.6674
115.9766
116.3259
116.6113
116.8310
117.442
117.3336
117.5898
117.8045
118.299
118.4376
118.7702
119.234
119.1830
119.4189
119.6793
119.9416
120.1757
120.5153
120.8243
121.872
121.2734
121.5297
121.7712
122.175
122.1851
122.5502
122.9035
123.2117
123.3713
123.6174
123.8866
124.1729
124.4235
124.7793
125.1264
125.3979
125.5993
125.9093
126.1834
126.4278
126.6603
127.915
127.4593
127.6984
127.8910
128.1391
128.4447
128.6761
128.9733
129.3240
129.6066
129.8110
130.578
130.3112
130.5810
130.7575
131.1445
131.5175
131.7994
131.9733
132.2256
132.5550
132.8003
133.1197
133.5056
133.8059
134.194
134.3244
134.6336
134.8984
135.1463
135.5891
135.9688
136.1827
136.4283
136.7110
137.178
137.2582
137.6232
137.9452
138.1867
138.4175
138.7016
138.9821
139.1471
139.5346
139.9246
140.1670
140.3712
140.6522
140.9896
141.2293
141.6073
141.9626
142.2205
142.4859
142.8272
143.1241
143.3364
143.7897
144.1839
144.3954
144.6515
144.9556
145.2505
145.5243
145.8997
146.1937
146.3871
146.6714
146.9671
147.1634
147.4653
147.8520
148.1493
148.3183
148.5924
148.9385
149.1675
149.5263
149.8601
150.804
150.3779
150.6936
150.9390
151.2265
151.6496
151.9734
152.1551
152.4397
152.7821
153.77
153.3486
153.6343
153.8354
154.942
154.3707
154.5426
154.8094
155.1538
155.3965
155.5551
155.8283
156.1205
156.3231
156.6345
156.8625
157.283
157.2930
157.5507
157.6606
158.325
158.3404
158.4553
158.5605
158.7475
158.8441
158.9266
159.344
159.1951
159.4323
159.7684
159.9213
160.353
160.2823
160.4790
160.5584
160.7792
160.8778
160.9116
160.9978
161.313
160.9417
161.1143
161.285
161.61
160.9441
161.1587
160.8883
161.1145
160.9530
161.746
160.8338
161.91
160.7359
160.9309
160.7043
160.6718
160.4904
160.6657
160.4928
160.4863
160.4606
160.4514
160.3687
160.3467
160.3962
160.2815
160.4666
160.3305
160.3768
160.3150
160.5487
160.2981
160.5437
160.3574
160.5093
160.2770
160.5018
160.2142
160.4581
160.1932
160.2475
160.506
160.2505
160.362
160.963
160.314
160.860
160.66
160.147
160.435
159.9634
160.1296
160.106
160.577
159.9979
160.2122
159.9729
160.2180
160.796
160.2374
160.284
160.2420
159.9598
160.1867
159.9352
159.9830
159.7776
159.9725
159.7589
159.8002
159.7483
159.7942
159.7366
159.7527
159.7899
159.6888
159.8621
159.7458
159.8014
159.7455
159.9755
159.7449
159.9864
159.8119
159.9782
159.7517
159.9622
159.6896
159.8941
159.6583
159.7308
159.5211
159.6595
159.4939
159.4981
159.4980
159.5066
159.4863
159.4552
159.5292
159.4022
159.6166
159.4739
159.5449
159.4561
159.7231
159.4546
159.7043
159.5198
159.6838
159.4490
159.6473
159.3742
159.5432
159.3630
159.3749
159.2045
159.2946
159.2293
159.1455
159.2215
159.2003
159.2415
159.1505
159.2968
159.1129
159.3685
159.1805
159.3005
159.1639
159.4534
159.1913
159.4180
159.2280
159.3903
159.1673
159.3143
159.965
159.1616
159.905
159.437
158.9628
158.9655
159.359
158.8649
159.193
158.9207
159.266
158.8798
159.941
158.8729
159.1624
158.9429
159.652
158.8797
159.1654
158.8806
159.400
158.9320
159.186
158.8566
158.9027
158.8455
158.7857
158.8670
158.7611
158.7559
158.6692
158.8613
158.5869
158.8075
158.6427
158.8081
158.5880
158.8292
158.5741
158.8164
158.6554
158.7278
158.5456
158.7076
158.5872
158.5859
158.6222
158.5926
158.6198
158.5447
158.6571
158.4815
158.7084
158.5298
158.6197
158.4282
158.6832
158.3856
158.5942
158.4019
158.5502
158.3173
158.4727
158.2909
158.3567
158.3464
158.3020
158.2763
158.3142
158.4442
158.2723
158.4803
158.3863
158.5089
158.3216
158.5250
158.2606
158.5122
158.2434
158.3273
158.986
158.3024
158.897
158.1464
158.899
158.1353
158.809
158.557
158.1395
158.266
158.2474
158.1083
158.1893
158.946
158.3626
158.887
158.3432
158.1390
158.3122
158.633
158.2320
158.82
158.982
157.9942
157.9632
157.8674
157.8830
157.9654
157.8030
157.9631
157.8778
158.56
157.8415
158.666
157.8103
158.942
157.8746
157.9979
157.8110
158.548
157.8446
157.9281
157.8554
157.8999
157.8370
157.8075
157.8609
157.7326
157.9210
157.7491
157.8086
157.6602
157.9127
157.6287
157.8558
157.6660
157.8354
157.5991
157.7655
157.5617
157.6549
157.6094
157.5868
157.5519
157.5813
157.7008
157.5352
157.7429
157.6469
157.7844
157.6001
157.8124
157.5280
157.7739
157.5175
157.6084
157.3939
157.5676
157.3871
157.3977
157.3917
157.3876
157.3722
157.3175
157.4527
157.3022
157.5545
157.3691
157.4847
157.3617
157.6646
157.3575
157.5858
157.4058
157.5356
157.3301
157.4305
157.2920
157.2973
157.3457
157.2368
157.2375
157.1680
157.3574
157.1030
157.3309
157.2247
157.3839
157.1603
157.3867
157.1111
157.3087
157.1521
157.1732
157.419
157.1653
157.1608
157.894
157.2246
157.1860
157.2618
157.1236
157.3083
157.525
157.3158
157.709
157.1571
156.9307
157.1567
156.9011
156.9903
156.9079
156.9502
156.8816
156.8788
156.9512
156.8312
157.544
156.9254
157.126
156.8982
157.1819
156.8940
157.1379
156.9417
157.949
156.8622
156.9958
156.8216
156.8617
156.8559
156.7797
156.7660
156.7127
156.8866
156.6605
156.8946
156.7506
156.9156
156.6924
156.9193
156.6390
156.8595
156.6861
156.7002
156.5825
156.7085
156.7057
156.6364
156.7775
156.7165
156.8191
156.6855
156.8744
156.6359
156.9002
156.6354
156.7387
156.5183
156.7377
156.4983
156.5546
156.4923
156.4987
156.4733
156.4436
156.5419
156.3867
156.6403
156.4868
156.5968
156.4584
156.7536
156.4583
156.6821
156.5047
156.6271
156.4339
156.5058
156.4108
156.3669
156.4628
156.3634
156.3734
156.2760
156.4981
156.2179
156.4679
156.2976
156.4707
156.2289
156.4255
156.1939
156.3126
156.2308
156.2335
156.1816
156.2299
156.3551
156.1948
156.4181
156.2912
156.4466
156.2467
156.4672
156.1911
156.4216
156.1852
156.2151
156.304
156.1376
156.691
155.9814
156.838
156.358
156.1208
156.73
156.2128
155.9749
156.2711
156.798
156.2146
156.161
156.2644
156.436
156.1144
156.646
156.950
156.687
156.180
156.1144
155.9490
156.1785
155.9759
156.606
155.8796
156.1452
155.8430
156.172
155.8520
155.9363
155.7702
155.8239
155.8189
155.7487
155.9224
155.8085
155.8893
155.8167
156.941
155.8245
156.865
155.9069
156.754
155.8437
155.9735
155.7775
155.8130
155.8056
155.7251
155.7200
155.6559
155.8500
155.5995
155.8401
155.6845
155.8504
155.6233
155.8503
155.5771
155.7495
155.6481
155.6700
155.6077
155.6683
155.7624
155.6251
155.8317
155.7167
155.8764
155.6885
155.8958
155.6062
155.8330
155.6051
155.6495
155.4536
155.5411
155.4886
155.4066
155.5287
155.4821
155.5799
155.4485
155.6625
155.4228
155.7095
155.5068
155.6198
155.4237
155.6377
155.4452
155.4810
155.5061
155.4827
155.5239
155.4405
155.5860
155.3867
155.6396
155.4101
155.5208
155.3084
155.5446
155.2728
155.3602
155.2504
155.2941
155.2402
155.2133
155.3129
155.1594
155.4160
155.2542
155.3819
155.2505
155.5421
155.2721
155.4654
155.3029
155.3988
155.2276
155.2475
155.2358
155.1391
155.3020
155.1655
155.2383
155.896
155.3535
155.397
155.2602
155.693
155.2137
155.128
155.1147
155.62
155.34
155.1256
155.283
155.874
155.424
155.2974
155.590
155.3272
155.1371
155.2984
155.610
155.1979
154.9819
155.180
155.86
154.9480
154.9494
154.8738
155.659
154.8138
155.540
154.9005
155.806
154.8389
155.452
154.7983
154.9139
154.8316
154.8285
154.7986
154.8308
154.9959
154.8188
155.721
154.9257
155.854
154.8643
155.736
154.8071
154.9709
154.7992
154.7874
154.6868
154.6980
154.7853
154.6186
154.8187
154.6868
154.8313
154.6373
154.8837
154.6259
154.8643
154.6802
154.7041
154.5807
154.6984
154.7414
154.6483
154.8307
154.7331
154.8660
154.6919
154.9058
154.6375
154.8799
154.6330
154.6702
154.4863
154.5822
154.5348
154.4517
154.5930
154.5163
154.6254
154.4894
154.7347
154.4983
154.7804
154.5608
154.6652
154.4830
154.6509
154.5431
154.5224
154.6246
154.5662
154.6516
154.5245
154.7193
154.4917
154.7567
154.5088
154.6052
154.3915
154.5513
154.3576
154.3244
154.3730
154.3503
154.4151
154.3121
154.5205
154.2929
154.5841
154.3893
154.5196
154.3326
154.5537
154.3399
154.3736
154.3954
154.3923
154.4359
154.3390
154.5014
154.2880
154.5570
154.3126
154.4133
154.1986
154.4054
154.1630
154.1867
154.1669
154.1554
154.1911
154.1258
154.3053
154.1180
154.4055
154.1890
154.3199
154.1531
154.4183
154.1864
154.2688
154.2230
154.2133
154.2176
154.1569
154.2978
154.1160
154.3816
154.1498
154.2751
154.676
154.2911
154.173
154.793
154.138
154.378
154.305
153.9724
154.1213
153.9461
154.2406
154.517
154.1804
154.158
154.2877
154.492
154.1635
154.713
154.1009
154.729
154.285
154.1456
153.9670
154.2193
154.89
154.1174
153.9151
154.1548
153.8911
153.9676
153.8631
153.8837
153.8591
153.8276
153.9616
153.8045
154.806
153.9166
154.499
153.8896
154.1656
153.9043
154.156
153.9039
153.9224
153.8914
153.8484
153.9569
153.7939
154.501
153.8355
153.9553
153.7563
154.14
153.7193
153.8138
153.7113
153.7390
153.7115
153.6834
153.8190
153.6557
153.9348
153.7650
153.8995
153.7368
154.93
153.7622
153.8656
153.7693
153.7933
153.7565
153.7048
153.8231
153.6465
153.9070
153.6811
153.7869
153.5793
153.8303
153.5654
153.6262
153.5540
153.5716
153.5730
153.5317
153.6867
153.5215
153.8078
153.5999
153.7394
153.5691
153.8397
153.5885
153.6642
153.6092
153.6313
153.6394
153.5653
153.6956
153.5029
153.7678
153.5608
153.6732
153.4430
153.6490
153.4128
153.4457
153.4189
153.4082
153.4378
153.3774
153.5566
153.3486
153.6443
153.4305
153.5484
153.3652
153.6161
153.4015
153.4454
153.4548
153.4533
153.4999
153.4046
153.5821
153.3721
153.6403
153.4109
153.5243
153.3020
153.4877
153.2767
153.2646
153.3061
153.2605
153.3358
153.2350
153.4542
153.2268
153.5366
153.3134
153.4372
153.2543
153.4490
153.2936
153.2732
153.3676
153.3035
153.4009
153.2828
153.4841
153.2403
153.5093
153.2509
153.3148
153.1251
153.2382
153.1403
153.505
153.1714
153.999
153.2370
153.1092
153.3541
153.951
153.3730
153.1808
153.2422
153.717
153.2036
153.1864
153.1147
153.2874
153.2134
153.3525
153.1806
153.3945
153.1217
153.3461
153.1257
153.1582
152.9758
153.248
153.590
152.9129
153.989
152.9868
153.1515
152.9629
153.2147
152.9641
153.1796
153.185
153.491
152.9616
153.159
153.1315
152.9857
153.2173
153.1100
153.2789
153.508
153.2537
152.9822
153.1195
152.9617
152.9270
152.8648
152.8563
153.97
152.7986
153.347
152.8718
153.373
152.8264
153.418
152.8044
152.9062
152.8674
152.8130
152.8327
152.8523
153.687
152.8509
153.1266
152.9701
153.1330
152.9087
153.573
152.8351
152.8622
152.8778
152.7852
152.8174
152.7373
152.9710
152.7091
152.9655
152.7807
152.9299
152.6928
152.8036
152.6775
152.6932
152.8186
152.7275
152.8123
152.7413
153.246
152.7595
153.95
152.8139
152.9233
152.7182
152.7696
152.7290
152.6508
152.8248
152.6754
152.7700
152.6306
152.9008
152.5888
152.7673
152.5939
152.6568
152.5445
152.5500
152.6292
152.5289
152.7910
152.6268
152.7603
152.6117
152.9071
152.6376
152.7768
152.6711
152.7014
152.6551
152.5924
152.7106
152.5293
152.7998
152.5802
152.7030
152.4899
152.7060
152.4617
152.4927
152.4761
152.4740
152.5173
152.4122
152.6074
152.4208
152.7306
152.5216
152.6245
152.4374
152.6267
152.4681
152.4538
152.5559
152.5157
152.6225
152.4882
152.6949
152.4426
152.7122
152.4424
152.4996
152.2989
152.3843
152.3556
152.2368
152.4080
152.3136
152.4777
152.3103
152.5607
152.2999
152.5479
152.3747
152.3959
152.3033
152.3625
152.4720
152.3238
152.5630
152.4241
152.5927
152.3764
152.5867
152.3023
152.4345
152.3056
152.2676
152.2410
152.2018
152.3951
152.1657
152.4191
152.2751
152.4254
152.1985
152.3734
152.1695
152.2123
152.2682
152.1931
152.2586
152.2205
152.4904
152.2445
152.5117
152.3431
152.4642
152.2433
152.3029
152.2167
152.1508
152.3005
152.1582
152.2414
152.1060
152.3847
152.719
152.2721
152.903
152.1525
152.328
152.561
152.1273
152.252
152.2943
152.1139
152.2539
152.1059
152.3932
152.1103
152.2393
152.1397
152.1552
152.1454
152.916
152.2434
152.643
152.3422
152.1043
152.1875
151.9827
152.1695
151.9559
151.9602
152.62
151.9723
152.547
151.9366
152.1654
151.9306
152.2381
152.25
152.969
151.9217
152.727
152.386
151.9798
152.1528
152.525
152.1882
152.305
152.2665
151.9770
152.1896
151.9749
151.9734
151.8649
151.8727
151.9818
151.7863
152.259
151.8832
152.621
151.8359
152.533
151.8234
151.9357
151.8908
151.8437
151.8718
151.8679
152.1042
151.8966
152.1651
151.9619
152.1290
151.8959
152.77
151.8383
151.8287
151.9316
151.8242
151.9042
151.7745
152.392
151.7320
151.9577
151.7618
151.8612
151.6914
151.7203
151.7652
151.6738
151.9259
151.7636
151.9048
151.7762
152.751
151.8044
151.9400
151.8207
151.8436
151.8096
151.7611
151.9017
151.7331
152.154
151.7996
151.8813
151.6667
151.8572
151.6476
151.6563
151.7118
151.6412
151.7371
151.6258
151.8615
151.6221
151.9170
151.7006
151.7948
151.6203
151.7465
151.7506
151.6635
151.8631
151.7633
151.9262
151.7353
151.9563
151.6684
151.8648
151.6829
151.6584
151.5787
151.5673
151.7178
151.5073
151.7622
151.6206
151.7981
151.5632
151.7438
151.5325
151.6009
151.6308
151.5720
151.6318
151.6040
151.8720
151.6303
151.8968
151.6838
151.7926
151.5998
151.6676
151.5967
151.5451
151.7121
151.5540
151.6582
151.5240
151.8015
151.5061
151.6633
151.5070
151.5546
151.4734
151.4550
151.5779
151.4455
151.7365
151.5588
151.6852
151.5221
151.7749
151.5391
151.5838
151.5919
151.5947
151.6512
151.5473
151.7326
151.5058
151.7856
151.5570
151.6074
151.3960
151.4934
151.4302
151.3307
151.4876
151.4226
151.5563
151.3799
151.6344
151.3811
151.5934
151.4243
151.4184
151.3570
151.4065
151.5636
151.4099
151.6704
151.5365
151.6941
151.4658
151.6243
151.3925
151.4386
151.4333
151.3493
151.3807
151.2886
151.5308
151.2572
151.5030
151.3213
151.4522
151.2457
151.3228
151.2882
151.2349
151.4445
151.3080
151.4363
151.3232
151.6315
151.3341
151.5205
151.3728
151.4096
151.3593
151.3101
151.4301
151.2543
151.5403
151.3294
151.4483
151.2175
151.4120
151.1788
151.1852
151.2407
151.2018
151.3006
151.1915
151.4258
151.1800
151.4781
151.2747
151.3221
151.1674
151.2787
151.3014
151.2153
151.4319
151.3325
151.4937
151.2945
151.5068
151.2419
151.3871
151.2362
151.1996
151.1672
151.1233
151.3155
151.715
151.3291
151.1560
151.3355
151.943
151.2372
151.685
151.769
151.2012
151.1113
151.2135
151.1504
151.4393
151.1759
151.4206
151.2498
151.3336
151.1726
151.1880
151.2327
151.1044
151.3529
151.1664
151.2799
151.945
151.3417
151.508
151.985
151.639
151.513
151.983
151.175
151.2188
151.225
151.3431
151.1215
151.2277
151.407
151.1905
151.1174
151.530
151.2191
151.1472
151.3026
151.1243
151.3592
151.945
151.2934
151.847
151.716
150.9803
150.9767
151.1243
150.9109
151.1615
151.59
151.1884
150.9557
151.1329
150.9253
150.9782
151.430
150.9886
151.559
151.113
151.2846
151.328
151.3012
151.1242
151.2292
151.327
151.603
151.603
150.9717
151.1865
151.7
151.1159
150.9433
151.1956
150.8947
150.9994
150.9015
150.9126
150.9269
150.8674
151.516
150.8618
151.1858
150.9834
151.935
150.9207
151.1086
150.9843
150.9674
151.1025
151.150
151.1545
150.9994
151.2260
150.9455
151.1766
150.9739
150.9627
150.8471
150.8482
150.9764
150.7886
151.334
150.9214
151.841
150.8434
151.224
150.8019
150.8581
150.9001
150.8374
150.9083
150.8702
151.1429
150.8752
151.1480
150.9604
151.719
150.8711
150.9032
150.8896
150.8063
151.314
150.8516
150.9688
150.7852
151.341
150.7327
150.8271
150.7341
150.7467
150.7633
150.7071
150.8949
150.7133
151.325
150.8364
150.9566
150.7637
150.9237
150.8238
150.7660
150.9194
150.8481
151.9
150.8291
151.476
150.7714
150.9766
150.7481
150.7216
150.6384
150.6446
150.8070
150.6049
150.8752
150.7188
150.8902
150.6583
150.8367
150.6301
150.6749
150.7530
150.6753
150.7622
150.7224
151.99
150.7368
150.9851
150.7893
150.8787
150.7072
150.7177
150.7609
150.6413
150.8969
150.6970
150.8262
150.6436
150.8831
150.6132
150.6587
150.6385
150.6165
150.6765
150.5939
150.8134
150.6019
150.9149
150.6866
150.7733
150.5908
150.7196
150.7027
150.6060
150.8110
150.7090
150.8878
150.6948
150.9211
150.6560
150.8007
150.6390
150.5965
150.5620
150.5142
150.7205
150.4864
150.7550
150.5934
150.7425
150.5131
150.6399
150.5148
150.5003
150.6647
150.5495
150.6691
150.5697
150.8706
150.5943
150.7944
150.6442
150.6900
150.6145
150.5794
150.6866
150.5090
150.7849
150.5837
150.7038
150.4715
150.6521
150.4342
150.4215
150.4949
150.4302
150.5538
150.4250
150.6797
150.4182
150.6935
150.5051
150.5133
150.4024
150.4934
150.6070
150.4555
150.7041
150.5560
150.7334
150.5057
150.6886
150.4471
150.4983
150.4893
150.3971
150.4450
150.3544
150.6174
150.3396
150.5851
150.4076
150.4977
150.3270
150.3648
150.4038
150.3107
150.5751
150.4214
150.5646
150.4100
150.6904
150.4393
150.5196
150.4741
150.4487
150.4978
150.4021
150.5885
150.3710
150.6649
150.4239
150.5020
150.2846
150.3719
150.3472
150.2236
150.4279
150.3466
150.5127
150.3132
150.5537
150.2987
150.4598
150.3469
150.3224
150.3364
150.3387
150.5683
150.3633
150.6503
150.4535
150.6096
150.3774
150.4515
150.3499
150.2888
150.4652
150.3334
150.4312
150.2725
150.5511
150.2322
150.3689
150.2304
150.2525
150.2351
150.2004
150.3757
150.2062
150.5206
150.3121
150.4472
150.2515
150.4308
150.3008
150.2780
150.4149
150.3262
150.4734
150.3014
150.5344
150.2703
150.4729
150.2639
150.2359
150.1693
150.1593
150.3243
150.1124
150.3786
150.2240
150.3966
150.1533
150.2982
150.1317
150.1426
150.2831
150.1719
150.2649
150.2105
150.5235
150.2411
150.4675
150.2962
150.3434
150.2551
150.2369
150.3397
150.1849
150.4555
150.2344
150.3544
150.1256
150.3208
150.1145
150.973
150.1768
150.1136
150.2369
150.1024
150.3487
150.1031
150.3682
150.1563
150.1820
150.882
150.1473
150.2773
150.1242
150.3951
150.2628
150.4334
150.1969
150.3590
150.1229
150.1451
150.1994
150.1064
150.1654
150.639
150.3331
150.327
150.2589
150.998
150.1529
150.219
150.289
150.1243
149.9966
150.2949
150.1306
150.2777
150.1097
150.3548
150.1196
150.1469
150.1951
150.1585
150.2560
150.1334
150.3531
150.1085
150.3645
150.1237
150.1425
149.9818
150.164
150.1041
149.9431
150.1907
150.458
150.2293
149.9980
150.1911
149.9758
150.469
150.870
150.163
150.931
150.404
150.3259
150.866
150.3433
150.1413
150.2434
150.645
150.653
150.1106
149.9973
150.2529
150.582
150.1888
149.9726
150.1955
149.9497
149.9613
149.9757
149.9301
150.291
149.9117
150.1486
149.9213
150.2156
150.468
150.1087
149.9467
150.210
150.970
149.9690
150.2093
150.892
150.2736
150.245
150.1908
149.9484
150.66
150.68
149.9101
149.9613
149.8703
150.1328
149.8679
150.978
149.8938
149.9908
149.8262
149.8567
149.9146
149.8163
150.938
149.9125
150.690
149.9082
150.1678
149.9359
149.9808
150.28
149.9613
150.586
149.9327
150.1567
149.9265
150.1932
149.9337
149.9712
149.8065
149.8484
149.9255
149.7731
150.76
149.8749
150.578
149.8445
150.478
149.8280
149.8822
149.9175
149.8486
149.9243
149.8705
150.1634
149.9212
150.1763
149.9742
150.719
149.9033
149.9154
149.9663
149.8536
150.1178
149.9059
150.370
149.8287
150.444
149.7977
149.8061
149.8422
149.8072
149.9132
149.8074
150.554
149.8240
150.1036
149.8985
149.9402
149.8044
149.8812
149.9862
149.8327
150.915
149.9540
150.1441
149.9186
150.917
149.8471
149.8827
149.9107
149.8222
149.8698
149.7732
150.408
149.7354
149.9714
149.7856
149.8591
149.7382
149.7548
149.8440
149.7084
149.9986
149.8294
149.9667
149.8121
150.711
149.8390
149.8578
149.9183
149.8721
149.9841
149.8560
150.793
149.8128
150.663
149.8290
149.8401
149.7180
149.7238
149.8505
149.6735
149.9299
149.7728
149.9598
149.7262
149.8941
149.6975
149.7435
149.8443
149.7449
149.8488
149.7783
150.732
149.8232
150.478
149.8615
149.9118
149.8124
149.7862
149.8916
149.7489
150.257
149.7988
149.9291
149.7028
149.8776
149.6655
149.6224
149.7363
149.6811
149.8213
149.6726
149.9290
149.6544
149.9021
149.7332
149.7305
149.6732
149.7171
149.8945
149.7131
149.9925
149.8230
149.9842
149.7429
149.8474
149.6746
149.6652
149.7928
149.6654
149.7592
149.6238
149.8991
149.6180
149.7788
149.6195
149.6500
149.6238
149.5917
149.7574
149.6048
149.9207
149.7085
149.8363
149.6540
149.8263
149.7057
149.6553
149.8145
149.7487
149.9082
149.7412
149.9622
149.6609
149.8373
149.6624
149.6415
149.6081
149.5746
149.7782
149.5500
149.8195
149.6415
149.7891
149.5594
149.6446
149.5762
149.5395
149.7568
149.6191
149.7608
149.6418
149.9414
149.6756
149.8066
149.6968
149.7023
149.7219
149.6525
149.8313
149.6158
149.9058
149.6450
149.7086
149.5241
149.6249
149.5978
149.4717
149.6796
149.5784
149.7427
149.5506
149.7882
149.5350
149.6623
149.5996
149.5423
149.5983
149.5868
149.8613
149.6399
149.9215
149.7260
149.8524
149.6370
149.6630
149.6661
149.5613
149.7989
149.6242
149.7398
149.5534
149.7898
149.5067
149.5359
149.5309
149.4989
149.5769
149.4771
149.7193
149.4959
149.7927
149.5626
149.6315
149.4880
149.5790
149.6694
149.5585
149.8088
149.6647
149.8491
149.6174
149.7927
149.5529
149.5926
149.6121
149.4984
149.5521
149.4631
149.7433
149.4451
149.6656
149.4775
149.5372
149.4211
149.4206
149.5374
149.4091
149.7140
149.5265
149.6692
149.4892
149.7141
149.5201
149.5278
149.6327
149.5812
149.7151
149.5619
149.7904
149.5075
149.7306
149.5052
149.4798
149.4014
149.3846
149.5662
149.3681
149.6361
149.4653
149.6319
149.3936
149.5163
149.3974
149.4005
149.5796
149.4573
149.5835
149.4862
149.7858
149.4856
149.6594
149.5267
149.5411
149.5216
149.4581
149.6319
149.4344
149.7308
149.4808
149.5760
149.3657
149.4656
149.3985
149.3047
149.4993
149.4022
149.5822
149.4006
149.6474
149.3697
149.5075
149.4339
149.3820
149.4246
149.4248
149.6804
149.4540
149.7374
149.5595
149.6847
149.4681
149.4877
149.4774
149.3870
149.6268
149.4478
149.5546
149.3664
149.5998
149.3178
149.3420
149.3388
149.3461
149.4267
149.3148
149.5510
149.3311
149.6215
149.3886
149.4296
149.2911
149.3715
149.4776
149.3393
149.6094
149.4610
149.6567
149.4196
149.5782
149.3461
149.3616
149.4218
149.3018
149.3927
149.2815
149.5631
149.2884
149.4895
149.3158
149.3499
149.2718
149.2599
149.3969
149.2309
149.5450
149.3686
149.5021
149.3046
149.4859
149.3400
149.3318
149.4658
149.3659
149.5166
149.3472
149.5793
149.3029
149.4846
149.3117
149.2725
149.2387
149.2061
149.4197
149.1973
149.4651
149.2632
149.4105
149.1854
149.2601
149.2137
149.1516
149.3803
149.2669
149.4011
149.2739
149.5515
149.2892
149.3771
149.3206
149.2986
149.3586
149.2657
149.4684
149.2436
149.5278
149.2909
149.3277
149.1504
149.1933
149.2510
149.902
149.3166
149.1744
149.3623
149.1370
149.3416
149.1215
149.1832
149.2453
149.1687
149.2446
149.1898
149.4936
149.2248
149.4674
149.2959
149.3516
149.2495
149.2140
149.3204
149.1774
149.4631
149.2555
149.3492
149.1307
149.2848
149.1086
149.693
149.1955
149.1105
149.2597
149.1136
149.3721
149.1159
149.3212
149.1787
149.1653
149.1422
149.1508
149.3804
149.1734
149.4634
149.2915
149.4348
149.2120
149.2711
149.2010
149.1322
149.3337
149.1618
149.2864
149.1204
149.3732
149.937
149.1413
149.924
149.643
149.1339
149.492
149.2855
149.602
149.3625
149.1600
149.2167
149.561
149.1444
149.2291
149.1152
149.3744
149.2126
149.3871
149.1627
149.3217
149.822
149.1051
149.1509
149.328
149.1117
149.7
149.2895
148.9926
149.1971
149.321
149.617
148.9946
148.9733
149.1311
148.9710
149.2916
149.750
149.2142
149.251
149.1993
149.888
149.390
149.2100
149.1349
149.2927
149.1030
149.3275
149.628
149.2183
149.633
149.176
149.63
148.9638
149.1924
148.9240
149.1870
148.9958
149.1194
148.9162
148.9613
148.9895
148.9175
149.1938
149.511
149.1782
149.339
149.2985
149.554
149.1022
149.1128
149.722
149.1718
149.538
149.2836
149.187
149.2723
149.667
149.748
148.9414
148.9386
149.678
148.8867
149.1438
148.9828
149.1579
148.9283
149.665
148.9017
148.9014
149.593
148.9456
149.756
148.9797
149.2892
148.9893
149.1654
149.424
149.561
149.531
148.9849
149.1538
148.9648
149.2573
149.143
149.741
148.8676
148.9492
148.9317
148.8190
149.244
148.9036
149.855
148.8887
149.1130
148.8654
148.9620
148.9550
148.8809
148.9586
148.9365
149.2262
148.9913
149.2409
149.393
149.1258
148.9727
148.9636
149.463
148.8924
149.1631
148.9483
149.803
148.8620
149.427
148.8482
148.8069
148.9260
148.8675
149.102
148.8605
149.1183
148.8717
149.751
148.9153
148.8901
148.8687
148.8913
149.1170
148.9178
149.2092
149.42
149.1524
148.9320
148.9775
148.9228
148.8296
149.545
148.8976
149.218
148.8262
149.660
148.7881
148.8242
148.8030
148.7951
148.8783
148.7759
149.177
148.8007
149.865
148.8963
148.8920
148.7787
148.8529
148.9844
148.8293
149.956
148.9366
149.1163
148.8891
149.270
148.8260
148.8113
148.9318
148.7893
148.8942
148.7560
149.276
148.7167
148.8595
148.7315
148.7594
148.7592
148.7006
148.9057
148.7352
149.549
148.8348
148.9147
148.7461
148.8669
148.8704
148.7857
149.93
148.8830
149.675
148.8548
149.445
148.7792
148.8404
148.8218
148.7209
148.7797
148.6933
148.9745
148.6761
148.9052
148.7143
148.7875
148.6750
148.6637
148.7967
148.6578
148.9745
148.7765
148.8879
148.7100
148.9014
148.7622
148.7434
148.8913
148.7991
148.9564
148.7805
149.140
148.7359
148.8812
148.7202
148.6841
148.6724
148.6390
148.8883
148.6275
148.8860
148.6745
148.8005
148.6108
148.6526
148.6921
148.5805
148.8580
148.6943
148.8491
148.6800
148.9393
148.7018
148.7239
148.7859
148.7368
148.8621
148.7086
148.9451
148.6985
148.9185
148.7305
148.7109
148.6304
148.6030
148.7848
148.5649
148.8328
148.6367
148.7866
148.5629
148.6531
148.5919
148.5601
148.7882
148.6425
148.7784
148.6520
148.9388
148.6905
148.7741
148.7250
148.6973
148.7696
148.6688
148.8832
148.6388
148.9043
148.6525
148.6851
148.5252
148.5533
148.6699
148.4920
148.7501
148.5990
148.7800
148.5520
148.7088
148.5303
148.5299
148.6818
148.5707
148.6966
148.5971
148.9067
148.6083
148.7775
148.6753
148.7101
148.7084
148.6257
148.8035
148.5894
148.8795
148.6314
148.6899
148.4906
148.5463
148.5779
148.4259
148.6617
148.5212
148.7130
148.4919
148.6958
148.4745
148.5245
148.5922
148.5005
148.6098
148.5552
148.8579
148.5986
148.8175
148.6679
148.6876
148.6230
148.5693
148.7026
148.5388
148.8381
148.6015
148.6848
148.4696
148.5779
148.5196
148.4286
148.6165
148.5270
148.6925
148.4840
148.7167
148.4812
148.5867
148.5593
148.5223
148.5640
148.5377
148.8257
148.5803
148.8370
148.6394
148.7311
148.5801
148.5683
148.6602
148.5187
148.7970
148.5834
148.6952
148.4735
148.6318
148.4582
148.4108
148.5489
148.4661
148.6340
148.4675
148.7233
148.4604
148.6363
148.5031
148.4706
148.4921
148.5028
148.7595
148.5233
148.8053
148.5978
148.7172
148.5173
148.5436
148.5749
148.4528
148.7113
148.5146
148.6524
148.4540
148.6662
148.4238
148.4130
148.4975
148.4454
148.5898
148.4440
148.7084
148.4286
148.6564
148.4824
148.4703
148.4467
148.4626
148.6812
148.4722
148.7679
148.5747
148.7271
148.5209
148.5684
148.5241
148.4225
148.6504
148.4760
148.6151
148.4449
148.6849
148.4122
148.4377
148.4553
148.4126
148.5169
148.4106
148.6661
148.4080
148.6760
148.4866
148.5011
148.4275
148.4815
148.6569
148.4671
148.7571
148.5830
148.7548
148.5201
148.6083
148.4795
148.4137
148.6036
148.4461
148.5782
148.4138
148.6787
148.3668
148.4457
148.3902
148.3909
148.4641
148.3826
148.6197
148.3821
148.6784
148.4573
148.5166
148.3855
148.4698
148.5945
148.4355
148.7098
148.5644
148.7512
148.5136
148.6420
148.4472
148.4372
148.5621
148.4336
148.5409
148.4080
148.6866
148.3812
148.5044
148.3839
148.3929
148.4164
148.3632
148.5771
148.3594
148.6795
148.4439
148.5294
148.3628
148.4674
148.5375
148.4151
148.6709
148.5381
148.7254
148.5035
148.6769
148.4373
148.4468
148.5200
148.4044
148.5019
148.3924
148.6809
148.3773
148.5344
148.3713
148.3908
148.3683
148.3335
148.5276
148.3396
148.6660
148.4677
148.5667
148.3936
148.5209
148.5083
148.4077
148.6283
148.5093
148.6976
148.4812
148.6756
148.4190
148.4763
148.4785
148.3717
148.4402
148.3533
148.6366
148.3474
148.5457
148.3692
148.4087
148.3348
148.3076
148.4598
148.3023
148.6232
148.4229
148.5503
148.3648
148.5175
148.4482
148.3952
148.5792
148.4758
148.6487
148.4650
148.6683
148.4056
148.4925
148.4347
148.3556
148.4005
148.3114
148.5777
148.3084
148.5425
148.3497
148.3939
148.2796
148.2776
148.4035
148.2822
148.6007
148.4042
148.5281
148.3434
148.5280
148.3922
148.3725
148.5315
148.4424
148.5958
148.4103
148.6359
148.3760
148.5015
148.3895
148.3592
148.3680
148.2963
148.5373
148.2594
148.5078
148.3076
148.3928
148.2241
148.2568
148.3473
148.2247
148.5263
148.3533
148.5079
148.3215
148.5312
148.3383
148.3220
148.4569
148.4141
148.5630
148.3870
148.6142
148.3223
148.4995
148.3419
148.2942
148.2857
148.2358
148.4740
148.2164
148.4787
148.2740
148.3986
148.2057
148.2503
148.3032
148.1945
148.4863
148.3196
148.4682
148.3019
148.5422
148.3259
148.3430
148.4342
148.3723
148.5090
148.3621
148.5929
148.3298
148.5222
148.3323
148.2968
148.2508
148.2029
148.4290
148.2063
148.4777
148.2943
148.4191
148.2081
148.2508
148.2669
148.1966
148.4712
148.3318
148.4828
148.3097
148.5627
148.3338
148.3626
148.4198
148.3874
148.5002
148.3472
148.5785
148.3133
148.5274
148.3037
148.2692
148.2117
148.2019
148.4073
148.1749
148.4523
148.2514
148.3919
148.1867
148.2650
148.2409
148.1648
148.4176
148.2608
148.4177
148.2758
148.5579
148.3009
148.3396
148.3600
148.3157
148.4331
148.3228
148.5553
148.3005
148.5351
148.3180
148.2824
148.1967
148.1962
148.3770
148.1802
148.4494
148.2779
148.4132
148.1803
148.2647
148.2031
148.1669
148.4016
148.2397
148.3906
148.2675
148.5628
148.3068
148.3729
148.3601
148.3449
148.4324
148.3028
148.5250
148.2584
148.5099
148.2998
148.2851
148.1704
148.1707
148.3246
148.1029
148.3697
148.2052
148.3823
148.1620
148.2780
148.1783
148.1337
148.3470
148.2122
148.3601
148.2511
148.5453
148.2791
148.3608
148.3208
148.2893
148.3641
148.2685
148.4851
148.2477
148.5070
148.2733
148.2469
148.1261
148.1440
148.2855
148.1033
148.3741
148.2231
148.3872
148.1419
148.2606
148.1436
148.1124
148.3150
148.1679
148.3107
148.1988
148.5091
148.2248
148.3405
148.2772
148.2824
148.3515
148.2603
148.4695
148.2212
148.4900
148.2425
148.2632
148.1115
148.1451
148.2698
148.909
148.3445
148.1757
148.3490
148.1162
148.2493
148.1065
148.1163
148.3029
148.1933
148.3286
148.2226
148.5180
148.2520
148.3662
148.2752
148.2705
148.3173
148.2198
148.4224
148.1857
148.4646
148.2119
148.2497
148.794
148.1077
148.2152
148.331
148.2969
148.1400
148.3301
148.1044
148.2590
148.911
148.918
148.2568
148.1338
148.2605
148.1708
148.4801
148.2141
148.3350
148.2384
148.2369
148.2687
148.1734
148.3837
148.1729
148.4533
148.2077
148.2419
148.696
148.1038
148.2038
148.258
148.2787
148.1393
148.3167
148.849
148.2446
148.657
148.525
148.2079
148.876
148.2285
148.1424
148.4503
148.1649
148.2966
148.1802
148.1778
148.2232
148.1337
148.3381
148.1285
148.4038
148.1732
148.2106
148.266
148.592
148.1507
147.9661
148.2233
148.628
148.2432
148.263
148.1894
148.142
148.131
148.1736
148.512
148.1913
148.1076
148.4150
148.1401
148.2731
148.1753
148.1911
148.2249
148.1361
148.3301
148.1205
148.4029
148.1520
148.1939
148.130
148.445
148.1360
147.9457
148.2052
148.673
148.2489
148.221
148.1764
147.9944
147.9931
148.1490
148.520
148.1977
148.1002
148.4121
148.1324
148.2647
148.1477
148.1486
148.1936
148.1116
148.3167
148.1052
148.3918
148.1466
148.1989
148.179
148.472
148.1371
147.9509
148.2035
148.900
148.2727
148.365
148.1908
148.30
147.9953
148.1571
148.377
148.1811
148.1058
148.4140
148.1361
148.2748
148.1540
148.1545
148.1929
148.1092
148.3110
148.993
148.3881
148.1325
148.1723
147.9893
148.244
148.1173
147.9371
148.1888
148.688
148.2483
148.163
148.1738
147.9975
148.17
148.1613
148.503
148.1865
148.980
148.3940
148.1204
148.2471
148.1375
148.1380
148.1734
148.906
148.2915
148.748
148.3555
148.1124
148.1396
147.9656
147.9965
148.963
147.9145
148.1683
148.307
148.2063
147.9786
148.1301
147.9507
147.9466
148.1137
147.9976
148.1340
148.306
148.3296
148.711
148.1952
148.829
148.873
148.1199
148.303
148.2410
148.173
148.2967
148.567
148.875
147.9131
147.9470
148.564
147.8677
148.1277
147.9719
148.1613
147.9378
148.798
147.9223
147.9195
148.926
147.9833
148.1098
148.36
148.3101
148.379
148.1594
148.716
148.402
148.1120
148.199
148.2409
148.9
148.2844
148.230
148.588
147.9073
147.9431
148.665
147.8885
148.1407
147.9835
148.1475
147.9101
148.402
147.9074
147.8999
148.969
147.9742
148.1176
147.9968
148.2977
148.52
148.1183
148.562
148.434
148.1147
148.262
148.2436
147.9903
148.2592
148.207
148.5
147.8960
147.9123
148.539
147.8735
148.1398
148.13
148.1716
147.9210
148.220
147.9099
147.8708
148.823
147.9488
148.1005
147.9817
148.2787
148.106
148.1050
148.519
148.219
148.1037
147.9905
148.2213
147.9979
148.2617
148.334
148.275
147.9026
147.8942
148.495
147.8525
148.1231
147.9435
148.1219
147.8972
148.14
147.9149
147.8765
148.949
147.9615
148.935
147.9683
148.2533
148.75
148.742
148.524
148.167
148.1152
147.9932
148.2193
147.9636
148.2181
147.9998
147.9850
147.8848
147.8864
148.503
147.8475
148.1197
147.9380
148.747
147.8485
147.9415
147.8893
147.8533
148.902
147.9607
148.977
147.9424
148.2236
147.9578
148.97
148.213
147.9734
148.795
147.9631
148.2043
147.9579
148.1897
147.9724
147.9267
147.8564
147.8390
148.332
147.8136
148.835
147.9306
148.776
147.8584
147.9298
147.9041
147.8279
148.871
147.9367
148.914
147.9496
148.2199
147.9826
148.207
148.576
148.141
148.1286
147.9879
148.2189
147.9664
148.1899
147.9841
147.9539
147.8957
147.8740
148.789
147.8461
148.1195
147.9193
148.552
147.8416
147.9157
147.9171
147.8557
148.1203
147.9715
148.1263
147.9562
148.2081
147.9678
147.9955
148.608
148.253
148.1480
147.9956
148.2354
147.9561
148.1592
147.9478
147.8997
147.8632
147.8456
148.748
147.8535
148.1236
147.9449
148.601
147.8462
147.8913
147.9261
147.8378
148.1145
147.9258
148.762
147.9231
148.1795
147.9457
147.9620
148.436
147.9742
148.1137
147.9605
148.2025
147.9524
148.1365
147.9611
147.9320
147.8995
147.8618
148.922
147.8319
148.815
147.8741
147.9873
147.8013
147.8368
147.8991
147.8029
148.940
147.9239
148.653
147.8910
148.1105
147.9064
147.9030
148.304
147.9562
148.1124
147.9509
148.1864
147.8925
148.537
147.8994
147.8413
147.8490
147.8151
148.700
147.8242
148.881
147.8826
147.9571
147.7886
147.8188
147.9109
147.7874
148.946
147.9079
148.636
147.8905
148.1022
147.9297
147.9103
148.528
147.9563
148.1197
147.9400
148.1773
147.9240
148.596
147.9405
147.8431
147.8723
147.8050
148.724
147.7981
148.479
147.8462
147.9260
147.7902
147.8043
147.9310
147.8136
148.1271
147.9292
148.584
147.8721
148.526
147.9262
147.8911
148.679
147.9680
148.1388
147.9595
148.1825
147.8978
148.108
147.9331
147.8444
147.8793
147.8073
148.931
147.8266
148.599
147.8619
147.9125
147.8043
147.7988
147.9367
147.7914
148.1194
147.9030
148.346
147.8684
148.373
147.9486
147.8870
148.779
147.9769
148.1555
147.9432
148.1582
147.9109
147.9883
147.9496
147.8581
147.9277
147.8358
148.1168
147.8108
148.203
147.8402
147.8729
147.7998
147.7810
147.9475
147.7921
148.1168
147.9071
148.131
147.8195
147.9561
147.9253
147.8384
148.606
147.9379
148.1314
147.9323
148.1319
147.8748
147.9232
147.9269
147.8232
147.8836
147.7808
148.721
147.7830
147.9821
147.7984
147.8220
147.7958
147.7647
147.9533
147.7648
148.948
147.8709
147.9696
147.7967
147.9291
147.9443
147.8603
148.986
147.9991
148.1786
147.9414
148.1131
147.8762
147.8874
147.9498
147.8349
147.9277
147.8179
148.1083
147.8195
147.9701
147.8203
147.8194
147.8199
147.7637
147.9715
147.7749
148.987
147.8909
147.9854
147.8018
147.9059
147.9662
147.8391
148.1013
147.9601
148.1563
147.9320
148.821
147.8655
147.8731
147.9673
147.8426
147.9510
147.8188
148.1026
147.7754
147.9085
147.7902
147.7984
147.8370
147.7785
148.1
147.7969
148.1078
147.8955
147.9393
147.7910
147.8870
147.9862
147.8474
148.1224
147.9921
148.1780
147.9381
148.697
147.8785
147.8529
147.9850
147.8537
147.9618
147.8246
148.1060
147.8245
147.9196
147.8223
147.8024
147.8631
147.7800
148.160
147.7872
148.956
147.9317
147.9780
147.8295
147.8991
148.258
147.8757
148.1472
147.9854
148.1539
147.9133
148.213
147.8716
147.8440
148.95
147.8714
147.9941
147.8347
148.1015
147.7954
147.8589
147.8129
147.7923
147.8806
147.7848
148.279
147.8095
148.817
147.8898
147.9093
147.8067
147.8550
148.266
147.8421
148.1334
147.9583
148.1373
147.9110
147.9964
147.8850
147.8199
148.155
147.8601
147.9852
147.8134
148.655
147.7746
147.8072
147.8047
147.7480
147.8640
147.7683
148.321
147.7772
148.511
147.8543
147.8591
147.7696
147.8157
148.194
147.8540
148.1477
147.9719
148.1312
147.8940
147.9418
147.8872
147.7906
148.142
147.8364
147.9730
147.7993
148.409
147.7793
147.7832
147.8270
147.7861
147.9071
147.7745
148.316
147.7615
148.3
147.8244
147.8232
147.7978
147.8297
148.547
147.8481
148.1339
147.9420
148.726
147.8651
147.8980
147.8934
147.8029
148.474
147.8537
147.9959
147.7933
148.58
147.7570
147.7458
147.8255
147.7722
147.9218
147.7777
148.333
147.7948
147.9900
147.8457
147.8231
147.8233
147.8254
148.781
147.8375
148.1269
147.9187
148.344
147.8438
147.8797
147.9118
147.7946
148.612
147.8832
148.50
147.7817
147.9618
147.7553
147.7074
147.8306
147.7616
147.9171
147.7622
148.239
147.7636
147.9310
147.8235
147.8015
147.8141
147.8013
148.713
147.8454
148.1263
147.9515
148.357
147.8587
147.8660
147.9367
147.7881
148.710
147.8480
147.9696
147.7626
147.9138
147.7568
147.7017
147.8533
147.7753
147.9513
147.7680
148.164
147.7397
147.8771
147.8283
147.7782
147.8417
147.8233
148.1151
147.8702
148.1109
147.9213
147.9635
147.8495
147.8215
147.9379
147.7782
148.764
147.8314
147.9375
147.7269
147.8607
147.7673
147.6862
147.8679
147.7653
147.9387
147.7366
147.9747
147.7292
147.8194
147.8177
147.7480
147.8297
147.7905
148.963
147.8252
148.569
147.8640
147.8907
147.8155
147.7716
147.9204
147.7565
148.530
147.8341
147.9132
147.6960
147.7758
147.7586
147.6371
147.8519
147.7203
147.9017
147.6892
147.8982
147.6688
147.7161
147.7919
147.7131
147.8251
147.7569
148.733
147.7886
147.9901
147.8294
147.8357
147.8322
147.7723
147.9595
147.7741
148.767
147.8069
147.8592
147.6627
147.7327
147.7750
147.6221
147.8684
147.7343
147.9246
147.7015
147.8755
147.6748
147.7097
147.8420
147.7584
147.8827
147.7876
148.956
147.8027
147.9594
147.8206
147.8203
147.8490
147.7774
147.9908
147.7831
148.770
147.8160
147.8427
147.6662
147.7062
147.8032
147.6145
147.8796
147.7160
147.9013
147.6715
147.8142
147.6722
147.6731
147.8516
147.7368
147.8742
147.7691
148.677
147.7707
147.8842
147.8176
147.7749
147.8527
147.7663
147.9906
147.7570
148.119
147.8013
147.7906
147.6635
147.6665
147.8175
147.6037
147.8723
147.6953
147.8620
147.6387
147.7355
147.6599
147.6127
147.8389
147.7151
147.8642
147.7270
148.91
147.7424
147.7835
147.7966
147.7427
147.8605
147.7353
147.9710
147.7240
147.9507
147.7417
147.7163
147.6540
147.6382
147.8389
147.5905
147.8630
147.6688
147.8172
147.5942
147.6600
147.6702
147.5993
147.8735
147.7190
147.8679
147.6929
147.9541
147.7179
147.7351
147.8101
147.7460
147.8942
147.7541
147.9944
147.7309
147.9059
147.7082
147.6478
147.6437
147.6104
147.8522
147.5987
147.8661
147.6573
147.7731
147.5942
147.6349
147.7033
147.6087
147.9119
147.7419
147.8763
147.6921
147.9052
147.7180
147.6847
147.8231
147.7478
147.9181
147.7511
147.9785
147.7215
147.8477
147.7320
147.6454
147.6820
147.6240
147.8890
147.6061
147.8323
147.6338
147.7029
147.5819
147.5831
147.7168
147.5854
147.9074
147.7176
147.8514
147.6573
147.8293
147.7412
147.6753
147.8687
147.7544
147.9400
147.7406
147.9529
147.6929
147.7506
147.7246
147.6281
147.7024
147.6268
147.9118
147.6253
147.8200
147.6421
147.6615
147.6067
147.5661
147.7426
147.5591
147.8860
147.6590
147.7734
147.6065
147.7330
147.7351
147.6449
147.8792
147.7580
147.9408
147.7101
147.8897
147.6430
147.6622
147.7257
147.6105
147.7194
147.6143
147.9025
147.6121
147.7467
147.5861
147.6009
147.6113
147.5536
147.7698
147.5660
147.8832
147.6467
147.7142
147.5699
147.6799
147.7675
147.6427
147.9062
147.7534
147.9344
147.6983
147.8338
147.6402
147.6099
147.7437
147.6105
147.7337
147.5886
147.8646
147.5474
147.6396
147.5719
147.5836
147.6468
147.5605
147.8087
147.5832
147.8668
147.6701
147.6772
147.5784
147.6298
147.7909
147.6090
147.9018
147.7589
147.9234
147.6879
147.7680
147.6648
147.5987
147.7926
147.6325
147.7725
147.5903
147.8350
147.5445
147.5555
147.5693
147.5323
147.6549
147.5329
147.7955
147.5644
147.8159
147.6318
147.6210
147.5908
147.6043
147.8252
147.6110
147.8957
147.6991
147.8425
147.6168
147.6528
147.6442
147.5478
147.8007
147.6150
147.7616
147.5691
147.7792
147.5344
147.5076
147.6045
147.5478
147.6900
147.5312
147.7942
147.5138
147.7090
147.5697
147.5353
147.5626
147.5733
147.8404
147.6119
147.8847
147.7066
147.7968
147.6203
147.6153
147.6880
147.5440
147.8178
147.6050
147.7124
147.5079
147.6531
147.5181
147.4413
147.6119
147.5218
147.7066
147.5351
147.7826
147.5252
147.6295
147.5911
147.5457
147.6194
147.5814
147.8824
147.6091
147.8640
147.6707
147.7161
147.6314
147.6116
147.7535
147.5850
147.8840
147.6436
147.7300
147.5152
147.5926
147.5657
147.4312
147.6450
147.5325
147.7287
147.5175
147.7286
147.5004
147.5433
147.6163
147.5249
147.6472
147.5893
147.9052
147.6305
147.8120
147.6554
147.6683
147.6649
147.5988
147.7847
147.5685
147.8696
147.6043
147.6699
147.4783
147.5406
147.6154
147.4636
147.7164
147.5969
147.7754
147.5400
147.6981
147.5220
147.5122
147.6680
147.5544
147.6898
147.6079
147.9178
147.6474
147.7578
147.6755
147.6817
147.7405
147.6401
147.8551
147.6066
147.8673
147.6387
147.6397
147.5169
147.5206
147.6662
147.4636
147.7429
147.5922
147.7649
147.5377
147.6496
147.5660
147.5177
147.7392
147.6200
147.7707
147.6277
147.9043
147.6404
147.6960
147.7100
147.6636
147.7759
147.6678
147.9022
147.6561
147.8905
147.6475
147.6072
147.5509
147.5300
147.7358
147.5044
147.7762
147.5966
147.7444
147.5155
147.5750
147.5959
147.5216
147.7973
147.6203
147.7730
147.6069
147.8527
147.6254
147.6338
147.7217
147.6588
147.8059
147.6501
147.8897
147.6274
147.8075
147.6393
147.5883
147.5913
147.5573
147.8137
147.5648
147.8166
147.6307
147.7070
147.5290
147.5549
147.6398
147.5137
147.8265
147.6859
147.8231
147.6331
147.8214
147.6672
147.6353
147.7872
147.6875
147.8622
147.6704
147.8857
147.5944
147.7110
147.6261
147.5519
147.5972
147.5248
147.8038
147.5290
147.7531
147.5746
147.6128
147.5159
147.5207
147.6767
147.5208
147.8435
147.6190
147.7227
147.5435
147.6848
147.6473
147.5617
147.7841
147.6743
147.8714
147.6761
147.8670
147.6206
147.6605
147.6769
147.5777
147.6623
147.5394
147.8222
147.5149
147.6796
147.5202
147.5396
147.5296
147.4833
147.6829
147.5082
147.8276
147.5935
147.6831
147.5108
147.6202
147.6848
147.5649
147.8329
147.6933
147.8858
147.6408
147.7782
147.5748
147.5939
147.7118
147.5891
147.7088
147.5758
147.8545
147.5766
147.6756
147.5735
147.5770
147.6180
147.5251
147.7650
147.5318
147.8439
147.6146
147.6536
147.5403
147.6107
147.7591
147.6216
147.9046
147.7484
147.9252
147.6694
147.7607
147.6354
147.5747
147.7612
147.6105
147.7342
147.5630
147.8204
147.5401
147.5728
147.5604
147.5194
147.6244
147.5320
147.7943
147.5394
147.8034
147.6156
147.6062
147.5621
147.5955
147.8079
147.6075
147.9113
147.7466
147.8924
147.6720
147.7220
147.6827
147.5946
147.8269
147.6561
147.7838
147.5765
147.7882
147.5350
147.5184
147.5982
147.5389
147.6830
147.5499
147.8097
147.5686
147.7696
147.5902
147.5634
147.5784
147.5894
147.8484
147.6155
147.8998
147.7436
147.8590
147.6561
147.6613
147.7198
147.6108
147.8786
147.6748
147.7935
147.5728
147.7371
147.5533
147.5073
147.6478
147.5688
147.7321
147.5509
147.8062
147.5490
147.6967
147.6272
147.5807
147.6425
147.6253
147.9134
147.6693
147.9183
147.7270
147.7742
147.6618
147.6295
147.7432
147.5784
147.8820
147.6522
147.7585
147.5385
147.6575
147.5817
147.4985
147.7023
147.5866
147.7639
147.5634
147.7863
147.5360
147.6121
147.6357
147.5740
147.6627
147.6113
147.9202
147.6597
147.8734
147.6976
147.7248
147.6832
147.6273
147.7959
147.6034
147.9078
147.6882
147.7375
147.5273
147.5949
147.6199
147.4757
147.7136
147.5772
147.7783
147.5667
147.7593
147.5453
147.5715
147.6896
147.6162
147.7262
147.6371
147.9502
147.6472
147.8149
147.6764
147.6917
147.7246
147.6569
147.8663
147.6570
147.9445
147.7080
147.7469
147.5617
147.5849
147.6861
147.4978
147.7532
147.6415
147.8273
147.5872
147.7082
147.5668
147.5584
147.7478
147.6591
147.7958
147.6739
147.9631
147.6754
147.7660
147.7185
147.6956
147.7787
147.6813
147.9007
147.6669
147.9252
147.6866
147.6790
147.5763
147.5847
147.7465
147.5413
147.8121
147.6360
147.7979
147.5695
147.6496
147.5933
147.5513
147.8040
147.6630
147.8229
147.6859
147.9543
147.6998
147.7358
147.7638
147.7259
147.8456
147.7119
147.9456
147.6905
147.9143
147.7015
147.6708
147.6237
147.5972
147.8120
147.5970
147.8751
147.6811
147.8056
147.5888
147.6274
147.6520
147.5502
147.8350
147.6698
147.8289
147.6750
147.9168
147.6925
147.7047
147.8006
147.7393
147.8880
147.7243
147.9491
147.6537
147.8256
147.6666
147.6203
147.6352
147.5888
147.8369
147.5840
147.8318
147.6609
147.7434
147.5700
147.5889
147.6841
147.5498
147.8570
147.6578
147.8005
147.6268
147.8083
147.6660
147.6569
147.8263
147.7208
147.9039
147.7136
147.9369
147.6410
147.7415
147.6658
147.5950
147.6486
147.5822
147.8603
147.5742
147.7999
147.6005
147.6566
147.5677
147.5666
147.7204
147.5637
147.8828
147.6863
147.7998
147.6123
147.7399
147.7019
147.6213
147.8409
147.7503
147.9334
147.7266
147.9139
147.6586
147.6978
147.7198
147.6267
147.7104
147.5992
147.8814
147.5640
147.7378
147.5730
147.5920
147.5797
147.5537
147.7508
147.5731
147.8984
147.6705
147.7542
147.5925
147.6990
147.7452
147.6131
147.8668
147.7375
147.9291
147.7026
147.8486
147.6306
147.6432
147.7423
147.6403
147.7442
147.6073
147.8858
147.5801
147.6918
147.5771
147.5834
147.6286
147.5509
147.7827
147.5729
147.8793
147.6456
147.7044
147.5673
147.6517
147.7760
147.6230
147.9004
147.7388
147.9131
147.6668
147.7720
147.6287
147.6000
147.7779
147.6306
147.7561
147.6021
147.8664
147.5829
147.6278
147.5893
147.5820
147.6803
147.5653
147.8176
147.5668
147.8395
147.6300
147.6335
147.5704
147.6252
147.8103
147.6451
147.9296
147.7669
147.9154
147.6734
147.7187
147.6612
147.5708
147.7989
147.6145
147.7496
147.5657
147.7989
147.5510
147.5462
147.6042
147.5428
147.6864
147.5660
147.8290
147.5662
147.7793
147.6120
147.6053
147.5952
147.6062
147.8533
147.6361
147.9321
147.7559
147.8717
147.6740
147.7091
147.7370
147.6089
147.8729
147.6848
147.8127
147.5960
147.7729
147.5668
147.5168
147.6471
147.6291
147.7812
147.5988
147.8522
147.6002
147.7621
147.6618
147.6092
147.6544
147.6488
147.9279
147.6730
147.9330
147.7247
147.8051
147.6599
147.6724
147.7731
147.6368
147.9252
147.6878
147.8019
147.5832
147.7276
147.6133
147.5199
147.6981
147.5998
147.7964
147.6187
147.8533
147.6127
147.7044
147.6884
147.6390
147.7154
147.6675
147.9685
147.6963
147.9209
147.7319
147.7735
147.7025
147.6686
147.8226
147.6537
147.9532
147.6952
147.7780
147.5744
147.6578
147.6418
147.5173
147.7410
147.6258
147.8058
147.5823
147.7850
147.5620
147.6076
147.6874
147.5985
147.7139
147.6606
147.9760
147.7071
147.8892
147.7352
147.7493
147.7397
147.6717
147.8580
147.6388
147.9359
147.6727
147.7393
147.5551
147.6159
147.6907
147.5389
147.7832
147.6479
147.8387
147.5835
147.7457
147.5596
147.5489
147.7099
147.6093
147.7444
147.6501
147.9540
147.6975
147.8183
147.7243
147.7068
147.7631
147.6724
147.8856
147.6397
147.9029
147.6457
147.6430
147.5278
147.5509
147.6999
147.5193
147.7915
147.6290
147.7871
147.5546
147.6771
147.5848
147.5404
147.7594
147.6340
147.7748
147.6450
147.9345
147.6935
147.7494
147.7472
147.7186
147.8241
147.7087
147.9459
147.6826
147.9185
147.7044
147.6745
147.5919
147.5783
147.7758
147.5479
147.8278
147.6473
147.7953
147.5724
147.6409
147.6335
147.5659
147.8247
147.6723
147.8275
147.6732
147.9227
147.6837
147.6946
147.7635
147.6969
147.8518
147.7230
147.9661
147.6974
147.8882
147.6966
147.6498
147.6336
147.5985
147.8374
147.5789
147.8322
147.6320
147.7534
147.5603
147.5913
147.6643
147.5779
147.8698
147.7052
147.8602
147.6635
147.8748
147.6840
147.6625
147.7998
147.7169
147.8880
147.7275
147.9639
147.7030
147.8212
147.6958
147.6027
147.6402
147.5787
147.8482
147.5764
147.8148
147.6165
147.6887
147.5624
147.5704
147.7035
147.5695
147.8869
147.6992
147.8403
147.6463
147.8146
147.7210
147.6533
147.8401
147.7476
147.9306
147.7188
147.9238
147.6704
147.7447
147.7201
147.6246
147.6879
147.6118
147.9029
147.6135
147.8084
147.6382
147.6490
147.6011
147.5653
147.7471
147.5803
147.9086
147.6902
147.8060
147.6377
147.7633
147.7628
147.6679
147.8965
147.7736
147.9574
147.7373
147.9169
147.6726
147.6965
147.7615
147.6332
147.7334
147.6354
147.9234
147.6383
147.7844
147.6380
147.6542
147.6537
147.5892
147.8010
147.5978
147.9192
147.6950
147.7800
147.6181
147.7194
147.7994
147.6840
147.9524
147.8190
147.9965
147.7441
147.8831
147.6808
147.6766
147.8083
147.6747
147.7926
147.6535
147.9359
147.6509
147.7466
147.6418
147.6555
147.7033
147.6191
147.8606
147.6244
147.9264
147.6987
147.7466
147.6312
147.7126
147.8570
147.7141
147.9976
147.8363
148.68
147.7621
147.8522
147.7232
147.6592
147.8374
147.6885
147.8067
147.6390
147.9033
147.6309
147.6676
147.6503
147.6381
147.7400
147.6398
147.8934
147.6386
147.9113
147.7029
147.7122
147.6511
147.6994
147.8996
147.7284
148.198
147.8545
148.55
147.7583
147.7929
147.7484
147.6582
147.8806
147.7066
147.8479
147.6485
147.8799
147.6237
147.6316
147.6740
147.6323
147.7677
147.6390
147.9008
147.6334
147.8615
147.6880
147.6699
147.6651
147.6915
147.9235
147.7230
148.116
147.8366
147.9545
147.7385
147.7533
147.7675
147.6431
147.9022
147.7131
147.8230
147.6196
147.8118
147.5985
147.5704
147.6821
147.6325
147.7942
147.6464
147.9039
147.6260
147.7940
147.6732
147.6416
147.6721
147.6617
147.9294
147.6980
147.9799
147.7595
147.8530
147.6910
147.7066
147.7865
147.6456
147.9422
147.7402
147.8501
147.6274
147.7687
147.6309
147.5503
147.7195
147.6298
147.8109
147.6393
147.8884
147.6258
147.7332
147.7053
147.6485
147.7232
147.6955
147.9871
147.7090
147.9547
147.8037
147.8505
147.7491
147.7286
147.8563
147.6727
147.9685
147.7406
147.8390
147.6185
147.7112
147.6653
147.5545
147.7660
147.6620
147.8499
147.6684
147.8884
147.6443
147.6868
147.7332
147.6599
147.7630
147.7023
148.125
147.7223
147.9306
147.7424
147.7739
147.7484
147.7053
147.8787
147.6832
147.9797
147.7367
147.8181
147.6169
147.6733
147.7073
147.5486
147.7913
147.6651
147.8603
147.6396
147.8169
147.6130
147.6406
147.7617
147.6887
147.8002
147.7012
148.130
147.7121
147.8687
147.7530
147.7748
147.8012
147.7152
147.9132
147.6970
147.9802
147.7457
147.7804
147.5982
147.6350
147.7347
147.5381
147.7909
147.6347
147.8250
147.5905
147.7173
147.5773
147.5798
147.7722
147.6799
147.8203
147.6920
147.9851
147.6936
147.7805
147.7345
147.6970
147.7942
147.6999
147.9275
147.6923
147.9460
147.7159
147.7159
147.5979
147.6097
147.7692
147.5578
147.8243
147.6582
147.8143
147.5834
147.6689
147.6191
147.5661
147.8143
147.6643
147.8181
147.6840
147.9639
147.7148
147.7503
147.7800
147.7244
147.8551
147.7212
147.9550
147.7014
147.9308
147.7292
147.7001
147.6524
147.6326
147.8465
147.6123
147.8736
147.6862
147.8025
147.5974
147.6552
147.6774
147.5883
147.8611
147.6879
147.8488
147.7000
147.9475
147.7226
147.7470
147.8467
147.7774
147.9279
147.7770
148.97
147.7352
147.9087
147.7320
147.6759
147.6699
147.6476
147.8963
147.6466
147.8977
147.7049
147.7721
147.6145
147.6454
147.7290
147.6219
147.9258
147.7191
147.8734
147.7064
147.9170
147.7564
147.7252
147.8761
147.7856
147.9617
147.7894
148.136
147.7455
147.8612
147.7510
147.6832
147.7213
147.6561
147.9202
147.6499
147.8805
147.7076
147.7637
147.6445
147.6273
147.7595
147.6167
147.9328
147.7169
147.8510
147.6823
147.8575
147.7570
147.6884
147.8774
147.7748
147.9650
147.7669
147.9738
147.7188
147.7740
147.7509
147.6494
147.7249
147.6491
147.9279
147.6414
147.8366
147.6622
147.6886
147.6369
147.5981
147.7776
147.6006
147.9293
147.7179
147.8380
147.6629
147.7796
147.7755
147.6831
147.9136
147.7992
147.9806
147.7565
147.9384
147.6941
147.7251
147.7785
147.6654
147.7661
147.6589
147.9497
147.6562
147.7939
147.6384
147.6552
147.6731
147.6197
147.8271
147.6225
147.9413
147.7081
147.7996
147.6481
147.7572
147.8242
147.7075
147.9645
147.8374
148.172
147.7822
147.9241
147.7141
147.7080
147.8247
147.6961
147.8126
147.6828
147.9725
147.6866
147.7782
147.6694
147.6749
147.7228
147.6546
147.8870
147.6580
147.9629
147.7355
147.7968
147.6648
147.7440
147.8830
147.7382
148.104
147.8596
148.261
147.7825
147.8829
147.7460
147.7015
147.8681
147.7846
147.9119
147.7349
147.9861
147.7046
147.7459
147.7027
147.6835
147.7705
147.6699
147.9177
147.6779
147.9523
147.7645
147.7742
147.6912
147.7362
147.9171
147.7438
148.325
147.8467
148.69
147.7710
147.8398
147.7677
147.7049
147.9245
147.7668
147.9028
147.7225
147.9665
147.7017
147.7028
147.7252
147.6899
147.8080
147.6850
147.9415
147.6990
147.9345
147.7710
147.7666
147.7332
147.7519
147.9723
147.7623
148.467
147.8589
148.110
147.7894
147.8242
147.8096
147.7115
147.9524
147.7816
147.9173
147.7098
147.9204
147.6773
147.6525
147.7266
147.6720
147.8134
147.6731
147.9293
147.6932
147.8809
147.7304
147.7137
147.7349
147.7414
148.2
147.7591
148.364
147.8307
147.9566
147.7669
147.7835
147.8320
147.7163
147.9831
147.8037
147.9392
147.7152
147.8803
147.6848
147.6269
147.7567
147.6758
147.8497
147.6888
147.9481
147.7029
147.8439
147.7579
147.7022
147.7629
147.7504
148.341
147.7820
148.446
147.8409
147.9353
147.7882
147.7811
147.8754
147.7341
148.273
147.7871
147.9132
147.6971
147.8403
147.7133
147.6157
147.7954
147.7187
147.9052
147.7325
147.9761
147.7347
147.8170
147.7959
147.7390
147.8275
147.7811
148.730
147.7962
148.409
147.8860
147.9405
147.8388
147.8207
147.9388
147.7634
148.551
147.8446
147.9263
147.7142
147.8073
147.7583
147.6480
147.8505
147.7574
147.9442
147.7473
147.9711
147.7227
147.7748
147.8159
147.7576
147.8609
147.8046
148.1044
147.8492
148.602
147.9041
147.9441
147.9000
147.8353
147.9898
147.7836
148.760
147.8582
147.9346
147.7152
147.7866
147.7863
147.6502
147.8803
147.7579
147.9572
147.7374
147.9369
147.7087
147.7389
147.8318
147.7530
147.8863
147.8235
148.1342
147.8594
148.309
147.8844
147.8908
147.8807
147.8116
147.9977
147.7789
148.720
147.8174
147.8876
147.6965
147.7595
147.8192
147.6694
147.9101
147.7767
147.9528
147.7228
147.8921
147.7008
147.7041
147.8497
147.7444
147.8888
147.7991
148.1109
147.8297
147.9649
147.8528
147.8612
147.9019
147.8147
148.188
147.8096
148.914
147.8314
147.8674
147.6999
147.7336
147.8458
147.6649
147.9249
147.7618
147.9492
147.7100
147.8491
147.7150
147.7157
147.9071
147.7964
147.9429
147.8206
148.1107
147.8256
147.9244
147.8662
147.8347
147.9178
147.8259
148.536
147.8210
148.817
147.8626
147.8547
147.7352
147.7411
147.8911
147.6795
147.9512
147.7726
147.9563
147.7310
147.8326
147.7540
147.7101
147.9393
147.8227
147.9661
147.8264
148.1036
147.8442
147.9019
147.8942
147.8549
147.9599
147.8555
148.832
147.8162
148.563
147.8420
147.8105
147.7332
147.7182
147.9102
147.6923
147.9739
147.7814
147.9275
147.7234
147.7947
147.7630
147.6810
147.9413
147.8203
147.9624
147.8137
148.705
147.8362
147.8581
147.9075
147.8827
147.9972
147.8589
148.888
147.8007
148.62
147.8069
147.7765
147.7429
147.7120
147.9308
147.7045
147.9703
147.8048
147.9226
147.7088
147.7448
147.7775
147.6634
147.9512
147.7844
147.9491
147.7935
148.382
147.8186
147.8311
147.9258
147.8575
148.8
147.8386
148.812
147.7988
147.9674
147.8035
147.7598
147.7609
147.7248
147.9730
147.7205
147.9716
147.7852
147.8868
147.7168
147.7447
147.8265
147.7096
148.140
147.8326
147.9810
147.8073
148.120
147.8346
147.7998
147.9404
147.8630
148.406
147.8651
148.942
147.8344
147.9596
147.8463
147.7996
147.8225
147.7539
148.154
147.7355
147.9738
147.7708
147.8550
147.7186
147.7135
147.8375
147.7111
148.315
147.8420
147.9798
147.7803
147.9572
147.8511
147.7857
147.9668
147.8745
148.526
147.8699
148.979
147.8335
147.9171
147.8541
147.7719
147.8235
147.7452
148.286
147.7306
147.9604
147.7615
147.8271
147.7377
147.7383
147.8840
147.7237
148.528
147.8363
147.9344
147.7592
147.9137
147.8694
147.8025
148.193
147.9153
148.919
147.8877
148.1033
147.8294
147.8769
147.8711
147.7798
147.8555
147.7634
148.417
147.7615
147.9549
147.7809
147.8073
147.7612
147.7171
147.8973
147.7258
148.567
147.8279
147.9402
147.7734
147.8955
147.8956
147.8073
148.415
147.9273
148.1135
147.8848
148.637
147.8209
147.8452
147.8976
147.7796
147.8778
147.7765
148.663
147.7690
147.9272
147.7834
147.7957
147.7896
147.7388
147.9464
147.7661
148.883
147.8678
147.9561
147.7751
147.8773
147.9300
147.8047
148.617
147.9864
148.1718
147.9363
148.816
147.8541
147.8618
147.9555
147.8433
147.9421
147.8019
148.758
147.7599
147.8917
147.7634
147.7599
147.7987
147.7445
147.9737
147.7693
148.785
147.8646
147.9109
147.7662
147.8479
147.9450
147.8065
148.815
147.9448
148.1360
147.9015
148.338
147.8329
147.8080
147.9399
147.8222
147.9379
147.7924
148.675
147.7814
147.8684
147.7905
147.7939
147.8633
147.7851
148.153
147.7826
148.814
147.8452
147.9039
147.7951
147.8833
148.190
147.8698
148.1416
147.9818
148.1476
147.9099
148.31
147.8619
147.8186
147.9861
147.8300
147.9520
147.8056
148.760
147.7910
147.8464
147.8028
147.7883
147.8782
147.7852
148.322
147.8151
148.953
147.8946
147.9227
147.8323
147.8754
148.361
147.8459
148.1325
147.9775
148.1459
147.9216
148.17
147.9011
147.8366
148.258
147.8831
148.99
147.8308
148.784
147.7938
147.8216
147.8203
147.7841
147.9022
147.8061
148.679
147.8108
148.771
147.8731
147.8634
147.8071
147.8620
148.588
147.8824
148.1732
147.9997
148.1714
147.9364
147.9889
147.9290
147.8379
148.596
147.8828
148.213
147.8404
148.841
147.8177
147.8262
147.8540
147.8175
147.9292
147.8025
148.634
147.8080
148.460
147.8658
147.8629
147.8392
147.8624
148.824
147.8732
148.1611
147.9645
148.1195
147.9044
147.9536
147.9419
147.8603
148.997
147.9351
148.677
147.8537
148.679
147.8104
147.7825
147.8527
147.7955
147.9437
147.8203
148.827
147.8277
148.347
147.8788
147.8652
147.8588
147.8748
148.1144
147.8994
148.1996
148.190
148.1440
147.9290
147.9528
147.9603
147.8380
148.982
147.9066
148.419
147.8443
148.414
147.8165
147.7998
147.8982
147.8549
147.9971
147.8349
148.960
147.8214
148.108
147.8714
147.8391
147.8670
147.8765
148.1424
147.9086
148.1851
147.9820
148.953
147.9131
147.9362
147.9850
147.8690
148.1494
147.9501
148.794
147.8551
148.196
147.8179
147.7645
147.8943
147.8323
148.41
147.8459
148.960
147.8446
147.9979
147.8944
147.8787
147.9065
147.8952
148.1659
147.9324
148.2058
148.447
148.1264
147.9483
147.9479
148.217
147.8746
148.1537
147.9376
148.680
147.8585
148.136
147.8479
147.7986
147.9496
147.8834
148.536
147.8694
148.1128
147.8417
147.9828
147.9103
147.8728
147.9264
147.9067
148.1944
147.9377
148.1968
147.9954
148.781
147.9408
147.9341
148.342
147.8944
148.1834
147.9837
148.1023
147.8788
148.93
147.8815
147.7871
147.9613
147.8819
148.628
147.8835
148.1213
147.8658
147.9679
147.9214
147.8607
147.9216
147.8967
148.2011
147.9676
148.2209
148.299
148.926
147.9811
147.9528
148.657
147.8970
148.1945
147.9570
148.747
147.8512
147.9736
147.8831
147.7992
147.9860
147.8819
148.705
147.8782
148.1096
147.8674
147.9413
147.9440
147.8643
147.9616
147.9284
148.2342
147.9600
148.2025
148.224
148.642
147.9885
147.9594
148.1005
147.9365
148.2271
147.9743
148.752
147.8612
147.9609
147.9089
147.7992
148.145
147.9129
148.923
147.9017
148.1343
147.8770
147.9552
147.9905
147.9151
148.214
147.9895
148.2874
148.279
148.2531
148.672
148.873
148.233
147.9828
148.1371
147.9584
148.2542
148.145
148.1139
147.9051
147.9892
147.9556
147.8271
148.414
147.9301
148.1249
147.9217
148.1348
147.9063
147.9653
148.31
147.9056
148.156
147.9719
148.2807
148.134
148.2292
148.401
148.874
148.602
148.186
148.1795
147.9798
148.2790
148.381
148.1310
147.9252
148.80
147.9951
147.8648
148.877
147.9654
148.1541
147.9492
148.1463
147.9292
147.9826
148.381
147.9463
148.634
148.167
148.3202
148.316
148.2469
148.708
148.1070
148.769
148.256
148.1923
147.9828
148.2872
148.363
148.1181
147.9084
148.37
148.110
147.8732
148.1082
147.9782
148.1870
147.9772
148.1779
147.9446
147.9884
148.794
147.9892
148.1119
148.531
148.3503
148.535
148.2500
148.862
148.1193
148.1033
148.245
148.1969
147.9958
148.3013
148.250
148.1154
147.9051
147.9750
148.42
147.8612
148.1120
147.9875
148.1921
147.9703
148.1661
147.9437
147.9753
148.727
147.9594
148.1029
148.257
148.3402
148.344
148.2299
148.742
148.951
148.1027
148.350
148.2207
148.74
148.3122
148.461
148.1351
147.9360
148.60
148.476
147.8862
148.1304
147.9888
148.2081
147.9633
148.1558
147.9495
147.9758
148.891
147.9742
148.1194
148.305
148.3504
148.459
148.2358
148.968
148.1067
148.1192
148.398
148.2456
148.280
148.3276
148.656
148.1492
147.9406
147.9995
148.579
147.8963
148.1519
148.56
148.2178
147.9748
148.1797
147.9786
147.9869
148.1148
148.10
148.1357
148.460
148.3697
148.567
148.2466
148.1221
148.1402
148.1602
148.751
148.2834
148.596
148.3684
148.867
148.1838
147.9935
148.335
148.990
147.9258
148.1841
148.407
148.2490
148.23
148.1982
147.9918
147.9952
148.1318
148.343
148.1823
148.747
148.3971
148.841
148.2736
148.1460
148.1602
148.1892
148.854
148.2960
148.683
148.3784
148.906
148.1960
148.14
148.568
148.1243
147.9377
148.2058
148.534
148.2726
148.350
148.2339
148.308
148.256
148.1650
148.536
148.2134
148.1115
148.4473
148.1265
148.3266
148.1999
148.2044
148.2312
148.1180
148.3272
148.870
148.4020
148.1114
148.2127
148.267
148.754
148.1518
147.9503
148.2272
148.679
148.2941
148.309
148.2444
148.532
148.630
148.2209
148.980
148.2478
148.1275
148.4794
148.1400
148.3620
148.2517
148.2664
148.2909
148.1854
148.4161
148.1371
148.4829
148.1967
148.2636
148.1192
148.1866
148.2318
148.262
148.3240
148.1635
148.879
147.9382
147.8921
147.9489
148.364
148.689
148.364
148.216
148.57
148.1077
147.9411
147.9393
148.589
148.372
147.9469
147.9366
147.5094
147.2571
147.1851
147.1624
147.1298
147.1213
147.2064
147.2718
147.2239
147.2588
147.3826
147.3978
147.4818
147.5505
147.5613
147.5504
147.6308
147.6841
147.6281
147.7557
147.8325
147.7771
147.7452
147.7466
147.7574
147.7265
147.7604
147.7248
147.6308
147.5822
147.5212
147.4305
147.3792
147.4189
147.4063
147.2437
147.1246
147.890
146.9851
146.9317
146.8856
146.7607
146.5691
146.4454
146.2840
146.553
145.9849
145.8968
145.7383
145.4756
145.2514
145.908
144.8765
144.7441
144.5761
144.3695
144.1106
143.9107
143.7151
143.4475
143.3493
143.2502
143.959
142.8322
142.6235
142.5043
142.3181
142.2208
142.1356
141.9874
141.7779
141.6608
141.5209
141.3288
141.2523
141.2269
141.1446
140.9298
140.7471
140.6168
140.4770
140.3549
140.2791
140.1393
139.9465
139.7802
139.6085
139.4626
139.2765
139.2594
139.1986
139.55
138.8104
138.6437
138.5510
138.4036
138.3549
138.2888
138.1548
137.9707
137.8661
137.7422
137.5625
137.5191
137.4922
137.4240
137.2173
137.489
136.9077
136.7882
136.6713
136.6127
136.4790
136.3148
136.1275
135.9601
135.8213
135.6068
135.5645
135.5065
135.3854
135.1595
134.9835
134.8731
134.7384
134.6347
134.5903
134.4744
134.3188
134.1709
134.386
133.9121
133.7187
133.7173
133.6636
133.5628
133.3493
133.1759
133.448
132.9071
132.7902
132.7235
132.5866
132.4200
132.2230
132.614
131.9086
131.6988
131.6179
131.5650
131.4774
131.2465
131.614
130.9025
130.7918
130.6491
130.5949
130.5147
130.3763
130.1813
130.540
129.9036
129.7522
129.6041
129.6105
129.5491
129.3952
129.1889
128.9985
128.8803
128.7228
128.6124
128.5392
128.3957
128.2258
128.260
127.8578
127.7027
127.4996
127.3847
127.3457
127.2691
127.643
126.8560
126.6671
126.5560
126.3997
126.3050
126.2480
126.1269
125.9596
125.7858
125.6546
125.5014
125.3174
125.2399
125.2166
125.1409
124.9577
124.7580
124.5637
124.4382
124.2771
124.1564
124.752
123.9342
123.7586
123.5534
123.3889
123.2097
123.321
122.8648
122.8321
122.7481
122.6054
122.3824
122.1874
122.330
121.9010
121.7628
121.7006
121.6167
121.4789
121.3045
121.1581
121.45
120.8633
120.6686
120.6090
120.5753
120.4919
120.3008
120.944
119.8905
119.7484
119.5993
119.4778
119.4068
119.2813
119.1314
118.9304
118.7602
118.5607
118.4021
118.1948
118.1142
118.615
117.9710
117.7739
117.5661
117.3683
117.2382
117.963
116.9685
116.9020
116.8153
116.6785
116.5057
116.3471
116.1928
116.387
115.8581
115.7555
115.7327
115.6519
115.5186
115.2963
115.1042
114.9124
114.7764
114.6118
114.5115
114.4207
114.2814
114.1226
113.9162
113.7485
113.5573
113.3962
113.1875
113.1178
113.617
112.9850
112.8058
112.5975
112.4032
112.2405
112.1177
111.9705
111.9030
111.8357
111.7066
111.5498
111.3651
111.2284
111.600
110.9083
110.7253
110.6623
110.6271
110.5358
110.3780
110.1558
109.9679
109.7615
109.6326
109.4734
109.3767
109.3028
109.1679
109.182
108.8242
108.6421
108.4559
108.2836
108.1125
107.9568
107.9282
107.8559
107.7635
107.5549
107.3638
107.1692
107.210
106.8864
106.7452
106.6755
106.6200
106.5051
106.3620
106.1873
106.398
105.8650
105.7000
105.5288
105.3879
105.3701
105.2920
105.1967
105.27
104.8012
104.5990
104.4223
104.2999
104.1518
104.584
103.9771
103.8443
103.6969
103.5131
103.3299
103.1575
102.9785
102.8329
102.6476
102.5920
102.5486
102.4689
102.3395
102.1262
101.9402
101.7449
101.6215
101.4928
101.3667
101.2994
101.2380
101.1220
100.9798
100.8019
100.6372
100.4778
100.3041
100.1593
99.9799
99.9322
99.8899
99.7972
99.6680
99.4520
99.2619
99.622
98.9054
98.7685
98.6260
98.5410
98.4742
98.3658
98.2309
98.690
97.8774
97.7256
97.5478
97.3977
97.2360
97.1070
97.864
97.252
96.9469
96.7930
96.5927
96.4218
96.2225
96.971
95.9601
95.8355
95.7692
95.7141
95.6099
95.4727
95.3150
95.1467
95.62
94.8281
94.6826
94.5205
94.3794
94.3605
94.3082
94.2183
94.818
93.8763
93.7014
93.5089
93.3491
93.2335
93.997
93.97
92.9468
92.8597
92.7292
92.5848
92.4189
92.2546
92.1014
91.9326
91.8080
91.6445
91.5421
91.5258
91.4663
91.3874
91.2509
91.558
90.8805
90.6879
90.5392
90.4257
90.2987
90.2130
90.1572
90.994
89.9864
89.8504
89.6875
89.5218
89.3854
89.2119
89.590
88.9101
88.7643
88.7286
88.7002
88.6172
88.5269
88.3504
88.1717
88.47
87.8110
87.6824
87.5629
87.4381
87.3608
87.3107
87.2418
87.1247
87.0
86.8407
86.6644
86.5213
86.3476
86.2084
86.865
85.9393
85.8855
85.8754
85.8195
85.7466
85.5997
85.4091
85.2453
85.602
84.9011
84.7894
84.6627
84.5672
84.5204
84.4710
84.3962
84.2786
84.1424
83.9814
83.8305
83.6934
83.5269
83.3852
83.2575
83.1242
83.888
83.897
83.244
82.9499
82.8202
82.6411
82.4768
82.3017
82.1229
82.121
81.8960
81.7886
81.7391
81.6936
81.6315
81.5290
81.4106
81.2687
81.1041
80.9663
80.8113
80.6622
80.5465
80.4230
80.3144
80.3060
80.2930
80.2336
80.1733
80.388
79.8580
79.6988
79.5327
79.3566
79.2495
79.1368
79.245
78.9761
78.9351
78.8977
78.8160
78.7030
78.5683
78.4202
78.2696
78.1438
77.9844
77.8461
77.7341
77.6140
77.5487
77.5537
77.5279
77.4626
77.3905
77.2498
77.796
76.9230
76.7468
76.5830
76.4806
76.3855
76.2816
76.2300
76.1920
76.1522
76.795
75.9680
75.8599
75.7209
75.5644
75.4404
75.2986
75.1602
75.596
74.9495
74.8456
74.8226
74.8275
74.7876
74.7270
74.6469
74.4983
74.3402
74.1895
74.234
73.8616
73.7714
73.6630
73.5606
73.5142
73.4868
73.4645
73.4123
73.3124
73.2082
73.775
72.9275
72.7937
72.6723
72.5319
72.4129
72.3110
72.1983
72.1373
72.1430
72.1395
72.916
72.252
71.9174
71.7487
71.6004
71.4527
71.2925
71.1582
71.760
70.9977
70.9080
70.8693
70.8437
70.8288
70.7816
70.6956
70.5945
70.4748
70.3365
70.2005
70.859
69.9368
69.8177
69.7359
69.6420
69.5569
69.5435
69.5596
69.5425
69.5037
69.4450
69.3240
69.1621
69.223
68.8798
68.7182
68.5985
68.5196
68.4341
68.3606
68.3304
68.3124
68.2979
68.2700
68.1967
68.1021
67.9838
67.8607
67.7276
67.6158
67.4917
67.3647
67.2670
67.1876
67.984
67.473
67.612
67.680
67.297
66.9767
66.9158
66.7891
66.6409
66.5052
66.3703
66.2159
66.1042
66.308
65.9609
65.8891
65.8594
65.8424
65.8292
65.8092
65.7471
65.6699
65.5837
65.4706
65.3457
65.2202
65.1124
64.9895
64.8786
64.8096
64.7330
64.6509
64.6327
64.6574
64.6711
64.6478
64.5985
64.5304
64.4076
64.2691
64.1489
64.214
63.8737
63.7618
63.6946
63.6304
63.5593
63.5292
63.5289
63.5242
63.5156
63.4781
63.3981
63.3092
63.2061
63.896
62.9650
62.8591
62.7410
62.6185
62.5326
62.4636
62.3972
62.3408
62.3400
62.3743
62.3845
62.3525
62.3136
62.2510
62.1286
61.9898
61.8696
61.7433
61.5993
61.4831
61.4085
61.3460
61.2862
61.2517
61.2507
61.2553
61.2572
61.2436
61.1978
61.1293
61.423
60.9465
60.8393
60.7338
60.6420
60.5303
60.4238
60.3577
60.2977
60.2338
60.1840
60.2009
60.2439
60.2631
60.2463
60.2199
60.1755
60.695
59.9358
59.8210
59.7012
59.5732
59.4523
59.3797
59.3292
59.2746
59.2292
59.2255
59.2335
59.2412
59.2434
59.2229
59.1706
59.966
59.163
58.9184
58.8063
58.7051
58.6209
58.5167
58.4089
58.3354
58.2798
58.2146
58.1732
58.1878
58.2326
58.2573
58.2475
58.2200
58.1756
58.912
57.9679
57.8519
57.7477
57.6421
57.5164
57.4242
57.3691
57.3242
57.2739
57.2431
57.2557
57.2710
57.2887
57.2965
57.2703
57.2249
57.1648
57.971
57.167
56.9177
56.8211
56.7432
56.6424
56.5517
56.4969
56.4588
56.4112
56.3672
56.3837
56.4323
56.4789
56.4870
56.4735
56.4543
56.4045
56.3030
56.1946
56.869
55.9879
55.8684
55.7539
55.6955
55.6526
55.6041
55.5644
55.5566
55.5759
55.5936
55.6160
55.6300
55.6098
55.5574
55.4951
55.4244
55.3402
55.2430
55.1571
55.873
54.9973
54.9022
54.8286
54.7797
54.7373
54.6928
54.6941
54.7453
54.7977
54.8238
54.8149
54.7964
54.7661
54.6900
54.5868
54.4860
54.3856
54.2873
54.1719
54.847
54.364
54.33
53.9686
53.9494
53.9614
53.9884
54.203
54.510
54.663
54.487
54.126
53.9680
53.9125
53.8369
53.7464
53.6647
53.5929
53.5132
53.4329
53.3826
53.3532
53.3242
53.2953
53.3063
53.3632
53.4269
53.4725
53.4833
53.4870
53.4708
53.4149
53.3192
53.2185
53.1265
53.310
52.9245
52.8251
52.7684
52.7332
52.7003
52.6761
52.6773
52.7014
52.7352
52.7700
52.8029
52.8110
52.7873
52.7423
52.6908
52.6297
52.5533
52.4635
52.3939
52.3344
52.2554
52.1879
52.1353
52.1001
52.669
52.404
52.459
52.901
52.1503
52.2024
52.2124
52.2092
52.1955
52.1573
52.757
51.9816
51.8893
51.8001
51.7081
51.6124
51.5509
51.5207
51.5046
51.4919
51.4873
51.5116
51.5603
51.6058
51.6528
51.6923
51.7000
51.6738
51.6377
51.5912
51.5272
51.4619
51.3920
51.3267
51.2646
51.1962
51.1298
51.976
51.830
51.692
51.532
51.714
51.1242
51.1957
51.2503
51.2794
51.2934
51.2901
51.2548
51.1736
51.828
51.55
50.9258
50.8443
50.7513
50.6934
50.6655
50.6569
50.6414
50.6417
50.6537
50.6961
50.7415
50.7865
50.8289
50.8466
50.8360
50.8088
50.7640
50.7086
50.6469
50.5701
50.4950
50.4452
50.3787
50.3169
50.2685
50.2403
50.2238
50.2109
50.2112
50.2473
50.3211
50.3908
50.4427
50.4561
50.4662
50.4621
50.4167
50.3402
50.2679
50.1997
50.1275
50.435
49.9571
49.9075
49.8994
49.8961
49.8897
49.8944
49.9183
49.9659
50.162
50.668
50.1165
50.1432
50.1409
50.1264
50.981
50.565
50.38
49.9389
49.8783
49.8264
49.7764
49.7219
49.6865
49.6800
49.6782
49.6768
49.6744
49.7231
49.8001
49.8848
49.9417
49.9732
49.9976
50.53
49.9793
49.9087
49.8263
49.7597
49.6912
49.6177
49.5288
49.4799
49.4673
49.4639
49.4527
49.4550
49.4849
49.5387
49.5985
49.6557
49.7068
49.7502
49.7584
49.7431
49.7053
49.6616
49.6151
49.5484
49.4863
49.4387
49.3901
49.3251
49.2763
49.2503
49.2378
49.2367
49.2333
49.2566
49.3248
49.4143
49.4838
49.5265
49.5442
49.5582
49.5531
49.5079
49.4323
49.3660
49.3028
49.2378
49.1655
49.1060
49.802
49.728
49.730
49.773
49.943
49.1438
49.2136
49.2774
49.3455
49.3996
49.4307
49.4388
49.4287
49.4011
49.3686
49.3220
49.2678
49.2132
49.1771
49.1246
49.807
49.506
49.474
49.493
49.547
49.686
49.1258
49.2094
49.3031
49.3712
49.4158
49.4540
49.4693
49.4455
49.3905
49.3199
49.2610
49.2064
49.1457
49.687
49.212
49.109
49.118
49.125
49.206
49.527
49.1139
49.1822
49.2482
49.3185
49.3645
49.3910
49.3829
49.3669
49.3305
49.2981
49.2507
49.1901
49.1471
49.982
49.348
48.9924
48.9651
48.9703
48.9698
48.9744
49.60
49.740
49.1643
49.2524
49.3137
49.3459
49.3789
49.3887
49.3517
49.2917
49.2302
49.1750
49.1079
49.438
48.9716
48.9436
48.9415
48.9542
48.9561
48.9739
49.193
49.957
49.1681
49.2478
49.3196
49.3674
49.3886
49.3966
49.3876
49.3650
49.3361
49.2919
49.2495
49.2207
49.1762
49.1298
49.1063
49.1099
49.1188
49.1266
49.1378
49.1923
49.2743
49.3759
49.4652
49.5138
49.5537
49.5851
49.5762
49.5335
49.4768
49.4311
49.3726
49.3186
49.2532
49.2066
49.1952
49.1970
49.1963
49.1988
49.2232
49.2879
49.3571
49.4273
49.5032
49.5685
49.6078
49.6178
49.6172
49.5993
49.5663
49.5217
49.4674
49.4274
49.3878
49.3371
49.2873
49.2654
49.2625
49.2702
49.2817
49.3041
49.3766
49.4724
49.5724
49.6444
49.6884
49.7194
49.7342
49.7112
49.6534
49.5986
49.5540
49.5054
49.4531
49.3952
49.3741
49.3811
49.3933
49.4099
49.4268
49.4729
49.5501
49.6178
49.6946
49.7664
49.8102
49.8325
49.8380
49.8293
49.8148
49.7888
49.7467
49.7111
49.6860
49.6495
49.6099
49.5944
49.5987
49.6144
49.6190
49.6510
49.7293
49.8354
49.9459
50.292
50.789
50.1263
50.1501
50.1334
50.757
50.224
49.9771
49.9202
49.8592
49.7970
49.7694
49.7772
49.7928
49.8028
49.8244
49.8711
49.9446
50.182
50.993
50.1759
50.2264
50.2510
50.2536
50.2433
50.2235
50.1859
50.1397
50.950
50.623
50.215
49.9836
49.9553
49.9497
49.9619
49.9708
49.9979
50.765
50.1778
50.2843
50.3621
50.4169
50.4528
50.4751
50.4565
50.4003
50.3476
50.3020
50.2572
50.2123
50.1510
50.1342
50.1375
50.1557
50.1791
50.2121
50.2699
50.3482
50.4291
50.5085
50.5799
50.6264
50.6546
50.6622
50.6567
50.6374
50.6064
50.5636
50.5362
50.5135
50.4742
50.4446
50.4406
50.4587
50.4682
50.4778
50.5269
50.6206
50.7300
50.8301
50.9014
50.9527
50.9879
50.9997
50.9637
50.9098
50.8651
50.8152
50.7642
50.7054
50.6681
50.6707
50.6922
50.7000
50.7198
50.7695
50.8465
50.9191
51.49
51.883
51.1469
51.1744
51.1786
51.1707
51.1502
51.1175
51.719
51.397
51.145
50.9771
50.9440
50.9219
50.9223
50.9378
50.9480
50.9809
51.611
51.1652
51.2629
51.3294
51.3760
51.4180
51.4343
51.4096
51.3517
51.3091
51.2642
51.2148
51.1643
51.1238
51.1237
51.1423
51.1643
51.1912
51.2351
51.3136
51.3971
51.4867
51.5625
51.6173
51.6497
51.6613
51.6592
51.6447
51.6158
51.5840
51.5603
51.5408
51.5138
51.4900
51.4879
51.5110
51.5300
51.5429
51.5928
51.6839
51.8007
51.8999
51.9544
52.53
52.505
52.539
52.151
51.9572
51.9115
51.8676
51.8132
51.7563
51.7271
51.7390
51.7629
51.7758
51.8055
51.8734
51.9567
52.487
52.1361
52.2088
52.2543
52.2653
52.2662
52.2487
52.2237
52.1874
52.1421
52.1179
52.809
52.449
52.181
52.164
52.313
52.500
52.723
52.1439
52.2446
52.3494
52.4195
52.4660
52.5091
52.5302
52.5071
52.4557
52.4214
52.3812
52.3324
52.2803
52.2453
52.2482
52.2663
52.2840
52.3120
52.3604
52.4369
52.5206
52.6099
52.6937
52.7489
52.7685
52.7763
52.7794
52.7624
52.7359
52.6988
52.6758
52.6493
52.6217
52.6109
52.6220
52.6480
52.6621
52.6908
52.7777
52.8908
52.9994
53.745
53.1275
53.1839
53.2012
53.1762
53.1276
53.926
53.534
53.10
52.9433
52.9166
52.9288
52.9513
52.9598
52.9850
53.483
53.1194
53.1995
53.2879
53.3517
53.3915
53.4066
53.4042
53.3988
53.3813
53.3366
53.2969
53.2684
53.2352
53.1979
53.1829
53.1984
53.2075
53.2199
53.2684
53.3654
53.4830
53.5766
53.6343
53.6762
53.7063
53.6965
53.6464
53.6019
53.5648
53.5232
53.4672
53.4250
53.4194
53.4457
53.4633
53.4870
53.5347
53.6159
53.6986
53.7860
53.8640
53.9130
53.9309
53.9450
53.9392
53.9241
53.8910
53.8590
53.8407
53.8117
53.7778
53.7692
53.7867
53.8053
53.8166
53.8580
53.9594
54.752
54.1725
54.2340
54.2880
54.3301
54.3221
54.2690
54.2188
54.1820
54.1392
54.811
54.362
54.382
54.538
54.666
54.887
54.1423
54.2251
54.3082
54.3952
54.4677
54.5080
54.5175
54.5181
54.5077
54.4829
54.4526
54.4175
54.4010
54.3624
54.3325
54.3185
54.3157
54.3303
54.3422
54.3911
54.4955
54.6137
54.6951
54.7565
54.8044
54.8336
54.8198
54.7692
54.7160
54.6706
54.6246
54.5667
54.5378
54.5450
54.5626
54.5781
54.6127
54.6806
54.7649
54.8556
54.9456
55.156
55.517
55.656
55.667
55.522
55.247
54.9794
54.9606
54.9355
54.9021
54.8822
54.8923
54.9100
54.9234
54.9574
55.477
55.1664
55.2675
55.3424
55.3983
55.4361
55.4350
55.3827
55.3362
55.3001
55.2554
55.2013
55.1655
55.1676
55.1838
55.1932
55.2192
55.2714
55.3521
55.4423
55.5280
55.5941
55.6263
55.6385
55.6367
55.6140
55.5815
55.5385
55.5088
55.4847
55.4555
55.4315
55.4347
55.4518
55.4577
55.4869
55.5737
55.6929
55.7885
55.8489
55.8936
55.9211
55.9144
55.8635
55.8160
55.7765
55.7293
55.6726
55.6364
55.6441
55.6585
55.6840
55.7136
55.7697
55.8570
55.9416
56.191
56.827
56.1021
56.1155
56.1175
56.1025
56.700
56.410
56.206
55.9946
55.9593
55.9455
55.9601
55.9709
55.9836
56.328
56.1315
56.2487
56.3323
56.3963
56.4445
56.4670
56.4374
56.3832
56.3417
56.2984
56.2426
56.1828
56.1672
56.1838
56.2042
56.2134
56.2567
56.3377
56.4164
56.5016
56.5794
56.6188
56.6273
56.6235
56.6040
56.5763
56.5372
56.5000
56.4768
56.4385
56.4107
56.3992
56.4091
56.4140
56.4378
56.5176
56.6356
56.7368
56.7968
56.8413
56.8763
56.8651
56.8111
56.7627
56.7206
56.6673
56.6088
56.5740
56.5868
56.6065
56.6216
56.6440
56.7203
56.8149
56.9041
56.9872
57.420
57.621
57.658
57.592
57.400
57.25
56.9651
56.9429
56.9119
56.8824
56.8803
56.8943
56.9094
56.9282
57.41
57.1142
57.2238
57.3003
57.3517
57.3924
57.3834
57.3258
57.2754
57.2283
57.1741
57.1080
57.754
57.771
57.919
57.1022
57.1380
57.2091
57.3007
57.3858
57.4652
57.5229
57.5427
57.5399
57.5258
57.4917
57.4542
57.4104
57.3897
57.3430
57.3074
57.3003
57.3143
57.3232
57.3512
57.4305
57.5472
57.6500
57.7101
57.7517
57.7749
57.7552
57.6916
57.6436
57.5933
57.5465
57.4881
57.4693
57.4811
57.4992
57.5145
57.5485
57.6229
57.7072
57.8000
57.8783
57.9218
57.9349
57.9353
57.9195
57.8861
57.8487
57.8236
57.7966
57.7644
57.7524
57.7664
57.7823
57.7860
57.8376
57.9444
58.513
58.1328
58.1860
58.2283
58.2392
58.1959
58.1390
58.959
58.519
57.9920
57.9511
57.9547
57.9648
57.9727
57.9970
58.592
58.1373
58.2107
58.2914
58.3360
58.3593
58.3542
58.3375
58.3051
58.2689
58.2398
58.2197
58.1750
58.1405
58.1355
58.1421
58.1470
58.1692
58.2452
58.3539
58.4418
58.4989
58.5405
58.5643
58.5403
58.4793
58.4361
58.3921
58.3467
58.2891
58.2799
58.2913
58.3014
58.3158
58.3583
58.4334
58.5165
58.5987
58.6620
58.6829
58.6838
58.6739
58.6556
58.6217
58.5890
58.5705
58.5353
58.5087
58.5106
58.5222
58.5267
58.5428
58.6180
58.7231
58.8215
58.8845
58.9320
58.9616
58.9387
58.8762
58.8261
58.7727
58.7217
58.6605
58.6511
58.6649
58.6709
58.6836
58.7378
58.8097
58.8889
58.9669
59.248
59.458
59.443
59.297
58.9986
58.9579
58.9132
58.8933
58.8477
58.8112
58.8038
58.8071
58.8120
58.8340
58.9126
59.219
59.1174
59.1652
59.2037
59.2297
59.2004
59.1416
59.948
59.489
58.9933
58.9302
58.9178
58.9355
58.9384
58.9558
59.48
59.803
59.1613
59.2381
59.2920
59.3135
59.3205
59.3119
59.2826
59.2435
59.2111
59.1884
59.1474
59.1145
59.1165
59.1276
59.1330
59.1628
59.2556
59.3730
59.4575
59.5133
59.5568
59.5781
59.5367
59.4748
59.4271
59.3720
59.3110
59.2608
59.2583
59.2634
59.2644
59.2930
59.3548
59.4251
59.5043
59.5782
59.6200
59.6272
59.6206
59.6009
59.5664
59.5174
59.4854
59.4576
59.4201
59.3968
59.3946
59.3926
59.3836
59.4307
59.5304
59.6453
59.7141
59.7525
59.7892
59.7807
59.7172
59.6669
59.6161
59.5706
59.5090
59.4778
59.4871
59.4983
59.5110
59.5528
59.6238
59.7054
59.7841
59.8383
59.8624
59.8654
59.8519
59.8203
59.7800
59.7414
59.7197
59.6811
59.6485
59.6486
59.6671
59.6710
59.6896
59.7763
59.8863
59.9730
60.261
60.655
60.779
60.249
59.9589
59.9078
59.8484
59.7905
59.7466
59.7433
59.7594
59.7532
59.7767
59.8410
59.9219
59.9985
60.677
60.1030
60.1051
60.968
60.731
60.310
59.9804
59.9482
59.9145
59.8725
59.8429
59.8441
59.8504
59.8554
59.9105
60.167
60.1123
60.1737
60.2122
60.2362
60.2111
60.1464
60.898
60.408
59.9804
59.9207
59.9066
59.9145
59.9182
59.9293
59.9838
60.547
60.1302
60.2048
60.2536
60.2621
60.2663
60.2465
60.2055
60.1540
60.1245
60.947
60.552
60.349
60.387
60.482
60.394
60.905
60.1891
60.2946
60.3618
60.4072
60.4426
60.4311
60.3710
60.3106
60.2599
60.2033
60.1333
60.1135
60.1242
60.1274
60.1293
60.1733
60.2400
60.3202
60.3981
60.4577
60.4745
60.4724
60.4524
60.4075
60.3626
60.3226
60.2940
60.2535
60.2150
60.2023
60.1936
60.1841
60.2158
60.3040
60.4156
60.4922
60.5259
60.5692
60.5639
60.5092
60.4559
60.4033
60.3526
60.2951
60.2664
60.2705
60.2750
60.2790
60.3092
60.3833
60.4560
60.5287
60.5796
60.6036
60.6125
60.6014
60.5666
60.5340
60.4903
60.4613
60.4104
60.3774
60.3772
60.3841
60.3743
60.4080
60.4994
60.6106
60.6921
60.7474
60.7933
60.7939
60.7361
60.6751
60.6245
60.5631
60.4843
60.4500
60.4572
60.4570
60.4508
60.4799
60.5470
60.6222
60.6974
60.7563
60.7757
60.7721
60.7541
60.7204
60.6730
60.6314
60.5967
60.5507
60.5082
60.4971
60.4920
60.4832
60.5103
60.5962
60.7082
60.7830
60.8213
60.8572
60.8578
60.7997
60.7367
60.6816
60.6232
60.5520
60.5199
60.5205
60.5253
60.5358
60.5696
60.6384
60.7168
60.7868
60.8459
60.8642
60.8674
60.8522
60.8205
60.7778
60.7369
60.7093
60.6564
60.6254
60.6197
60.6196
60.6056
60.6391
60.7388
60.8484
60.9223
60.9693
61.116
60.9998
60.9347
60.8767
60.8171
60.7620
60.6825
60.6518
60.6480
60.6473
60.6522
60.6931
60.7601
60.8332
60.9070
60.9581
60.9745
60.9694
60.9502
60.9125
60.8554
60.8094
60.7767
60.7250
60.6855
60.6742
60.6687
60.6659
60.7050
60.7989
60.9035
60.9684
61.62
61.306
61.103
60.9497
60.8943
60.8395
60.7831
60.7129
60.6873
60.6955
60.6989
60.7105
60.7583
60.8330
60.9098
60.9866
61.333
61.429
61.394
61.196
60.9765
60.9194
60.8812
60.8492
60.8036
60.7814
60.7852
60.7883
60.7805
60.8367
60.9391
61.341
61.921
61.1324
61.1527
61.1259
61.574
61.28
60.9506
60.8771
60.8090
60.7972
60.7988
60.7991
60.8110
60.8655
60.9309
60.9975
61.649
61.1017
61.1003
61.876
61.548
61.103
60.9588
60.9239
60.8784
60.8362
60.8113
60.8076
60.8091
60.8113
60.8760
60.9775
61.638
61.1073
61.1428
61.1624
61.1138
61.524
60.9959
60.9351
60.8728
60.8095
60.7979
60.8006
60.8040
60.8181
60.8778
60.9546
61.296
61.927
61.1200
61.1253
61.1119
61.874
61.445
60.9960
60.9643
60.9215
60.8796
60.8690
60.8741
60.8711
60.8813
60.9537
61.612
61.1448
61.1893
61.2189
61.2247
61.1658
61.1000
61.469
60.9895
60.9127
60.8654
60.8679
60.8709
60.8716
60.9022
60.9691
61.313
61.1082
61.1635
61.1871
61.1783
61.1429
61.1072
61.600
61.59
60.9841
60.9319
60.8865
60.8702
60.8751
60.8627
60.8887
60.9740
61.761
61.1474
61.1845
61.2159
61.2090
61.1509
61.839
61.265
60.9617
60.8858
60.8513
60.8502
60.8503
60.8553
60.8935
60.9568
61.299
61.953
61.1429
61.1509
61.1466
61.1279
61.880
61.354
60.9940
60.9579
60.9069
60.8854
60.8921
60.8948
60.8868
60.9272
61.186
61.1106
61.1790
61.2294
61.2560
61.2283
61.1680
61.1118
61.545
60.9917
60.9184
60.8973
60.9055
60.9073
60.9108
60.9614
61.293
61.985
61.1699
61.2044
61.1983
61.1788
61.1485
61.1030
61.473
61.68
60.9696
60.9204
60.8929
60.8901
60.8857
60.8827
60.9357
61.318
61.1317
61.1761
61.2069
61.2285
61.1831
61.1171
61.577
60.9997
60.9382
60.8734
60.8639
60.8715
60.8793
60.8907
60.9455
61.182
61.917
61.1526
61.1766
61.1768
61.1631
61.1301
61.903
61.410
61.55
60.9630
60.9188
60.9007
60.9019
60.8921
60.9002
60.9678
61.764
61.1584
61.2069
61.2532
61.2636
61.2145
61.1407
61.774
61.116
60.9324
60.8765
60.8719
60.8730
60.8735
60.8970
60.9600
61.266
61.951
61.1507
61.1763
61.1658
61.1369
61.990
61.501
61.8
60.9668
60.9194
60.8783
60.8595
60.8579
60.8535
60.8753
60.9495
61.529
61.1194
61.1612
61.1881
61.1806
61.1186
61.469
60.9918
60.9367
60.8654
60.8217
60.8229
60.8288
60.8355
60.8652
60.9314
60.9948
61.679
61.1132
61.1226
61.1166
61.973
61.589
61.108
60.9669
60.9325
60.8895
60.8587
60.8601
60.8611
60.8573
60.8840
60.9725
61.641
61.1326
61.1731
61.2010
61.1836
61.1191
61.535
61.21
60.9385
60.8638
60.8401
60.8416
60.8359
60.8332
60.8745
60.9395
61.92
61.786
61.1289
61.1335
61.1189
61.889
61.388
60.9846
60.9424
60.9097
60.8598
60.8214
60.8102
60.8090
60.7996
60.8364
60.9327
61.273
61.854
61.1290
61.1582
61.1321
61.721
61.126
60.9620
60.8907
60.8212
60.7944
60.7939
60.7904
60.7945
60.8344
60.9000
60.9686
61.276
61.649
61.721
61.753
61.546
61.189
60.9622
60.9321
60.8954
60.8455
60.8188
60.8192
60.8099
60.8062
60.8662
60.9665
61.537
61.1047
61.1455
61.1663
61.1170
61.471
60.9907
60.9342
60.8665
60.8002
60.7880
60.7875
60.7862
60.8029
60.8486
60.9114
60.9750
61.349
61.661
61.668
61.472
61.139
60.9666
60.9114
60.8788
60.8377
60.7975
60.7733
60.7779
60.7633
60.7616
60.8254
60.9277
61.99
61.480
61.776
61.882
61.382
60.9668
60.9111
60.8551
60.7868
60.7361
60.7307
60.7381
60.7403
60.7598
60.8203
60.8849
60.9544
61.101
61.317
61.256
61.110
60.9766
60.9268
60.8744
60.8491
60.8033
60.7596
60.7510
60.7562
60.7531
60.7683
60.8428
60.9442
61.199
61.638
61.989
61.986
61.444
60.9752
60.9185
60.8616
60.7887
60.7448
60.7449
60.7428
60.7402
60.7611
60.8199
60.8843

END