=~=~=~=~=~=~=~=~=~=~=~= PuTTY log 2025.04.24 08:53:03 =~=~=~=~=~=~=~=~=~=~=~=




Speed (Hz)
59.9987
59.9856
59.9780
59.9960
60.348
60.649
60.843
60.1171
60.1820
60.2483
60.3199
60.3624
60.3796
60.3879
60.3944
60.3941
60.3882
60.3830
60.3831
60.3453
60.2954
60.2631
60.2324
60.1817
60.1545
60.1926
60.2561
60.3053
60.3250
60.3466
60.3515
60.3129
60.2716
60.2527
60.2308
60.1805
60.1300
60.1077
60.783
60.377
60.121
60.322
60.620
60.974
60.1310
60.1402
60.1315
60.1238
60.1132
60.995
60.830
60.847
60.634
60.150
59.9685
59.9351
59.8923
59.8537
59.8731
59.9379
60.36
60.340
60.574
60.821
60.625
60.244
60.18
59.9883
59.9547
59.8988
59.8734
59.8576
59.8335
59.8076
59.8171
59.8571
59.8995
59.9400
59.9631
59.9675
59.9721
59.9766
59.9752
59.9717
59.9789
59.9818
59.9421
59.9035
59.8817
59.8545
59.8140
59.8148
59.8759
59.9499
59.9994
60.312
60.656
60.727
60.379
60.159
60.92
59.9885
59.9417
59.9075
59.8950
59.8660
59.8359
59.8304
59.8629
59.9041
59.9510
59.9863
59.9960
59.9968
59.9920
59.9909
59.9836
59.9780
59.9888
59.9617
59.9111
59.8705
59.8418
59.8012
59.7749
59.8130
59.8851
59.9418
59.9672
59.9943
60.139
59.9915
59.9626
59.9536
59.9428
59.9068
59.8652
59.8492
59.8355
59.8080
59.7914
59.8141
59.8576
59.9009
59.9450
59.9640
59.9690
59.9726
59.9792
59.9797
59.9770
59.9839
59.9732
59.9338
59.8984
59.8793
59.8475
59.8107
59.8327
59.8995
59.9707
60.84
60.430
60.734
60.647
60.280
60.105
60.61
59.9819
59.9341
59.9114
59.8974
59.8693
59.8436
59.8487
59.8866
59.9239
59.9747
60.44
60.87
60.96
60.75
60.45
59.9947
59.9939
59.9940
59.9582
59.9145
59.8836
59.8517
59.8104
59.8023
59.8570
59.9337
59.9835
60.60
60.327
60.394
60.106
59.9832
59.9745
59.9577
59.9115
59.8722
59.8563
59.8405
59.8136
59.8022
59.8364
59.8816
59.9320
59.9708
59.9888
59.9939
59.9924
59.9949
59.9900
59.9867
59.9944
59.9702
59.9280
59.8976
59.8818
59.8470
59.8239
59.8666
59.9407
60.65
60.412
60.763
60.1031
60.824
60.453
60.320
60.172
59.9821
59.9355
59.9205
59.9060
59.8733
59.8533
59.8740
59.9123
59.9538
59.9966
60.227
60.236
60.218
60.182
60.139
60.64
60.105
59.9993
59.9590
59.9155
59.8833
59.8494
59.8080
59.8202
59.8840
59.9581
59.9944
60.159
60.435
60.430
60.91
59.9899
59.9834
59.9629
59.9176
59.8882
59.8759
59.8538
59.8284
59.8276
59.8640
59.9067
59.9549
59.9832
59.9917
59.9991
60.33
60.63
60.25
60.64
60.139
59.9820
59.9441
59.9259
59.9051
59.8656
59.8560
59.9107
59.9870
60.414
60.710
60.1077
60.1235
60.974
60.652
60.597
60.437
60.17
59.9636
59.9501
59.9297
59.8967
59.8845
59.9149
59.9540
60.3
60.413
60.575
60.576
60.579
60.616
60.583
60.535
60.611
60.364
59.9922
59.9459
59.9135
59.8752
59.8430
59.8711
59.9427
60.93
60.334
60.659
60.911
60.751
60.426
60.287
60.169
59.9842
59.9354
59.9101
59.8967
59.8698
59.8483
59.8684
59.9136
59.9587
60.53
60.270
60.313
60.413
60.461
60.464
60.403
60.456
60.372
59.9943
59.9550
59.9341
59.9041
59.8637
59.8787
59.9473
60.243
60.702
60.1081
60.1443
60.1424
60.1089
60.917
60.836
60.578
60.63
59.9774
59.9651
59.9346
59.9052
59.9096
59.9445
59.9851
60.377
60.682
60.771
60.768
60.747
60.682
60.595
60.566
60.580
60.242
59.9752
59.9387
59.9086
59.8676
59.8548
59.9063
59.9809
60.315
60.559
60.820
60.953
60.679
60.400
60.286
60.103
59.9641
59.9238
59.9087
59.8912
59.8676
59.8551
59.8834
59.9279
59.9746
60.106
60.277
60.344
60.392
60.401
60.386
60.341
60.433
60.211
59.9762
59.9484
59.9291
59.8981
59.8710
59.9085
59.9818
60.497
60.858
60.1213
60.1501
60.1314
60.971
60.839
60.716
60.348
59.9855
59.9685
59.9531
59.9220
59.9005
59.9152
59.9537
59.9967
60.420
60.649
60.649
60.621
60.609
60.557
60.469
60.510
60.476
60.62
59.9608
59.9278
59.8953
59.8535
59.8596
59.9212
59.9948
60.267
60.490
60.767
60.743
60.433
60.227
60.131
59.9952
59.9456
59.9158
59.9039
59.8820
59.8581
59.8569
59.8931
59.9375
59.9860
60.144
60.226
60.270
60.307
60.296
60.247
60.235
60.314
59.9998
59.9598
59.9415
59.9182
59.8794
59.8694
59.9221
59.9983
60.560
60.845
60.1228
60.1385
60.1077
60.826
60.743
60.564
60.100
59.9717
59.9596
59.9366
59.9027
59.8889
59.9150
59.9532
59.9986
60.379
60.536
60.507
60.469
60.447
60.385
60.317
60.401
60.177
59.9703
59.9306
59.8994
59.8617
59.8299
59.8607
59.9312
59.9959
60.251
60.496
60.740
60.576
60.186
60.79
59.9945
59.9635
59.9150
59.8950
59.8827
59.8582
59.8352
59.8505
59.8915
59.9340
59.9809
60.23
60.35
60.102
60.118
60.120
60.62
60.146
60.135
59.9763
59.9414
59.9223
59.8954
59.8580
59.8700
59.9385
60.106
60.532
60.865
60.1196
60.1176
60.848
60.614
60.516
60.305
59.9821
59.9526
59.9418
59.9153
59.8872
59.8895
59.9264
59.9662
60.150
60.476
60.569
60.579
60.564
60.543
60.459
60.416
60.443
60.117
59.9671
59.9324
59.9055
59.8660
59.8518
59.8990
59.9771
60.320
60.554
60.852
60.1003
60.726
60.413
60.272
60.130
59.9689
59.9231
59.9088
59.8918
59.8673
59.8525
59.8798
59.9224
59.9684
60.69
60.254
60.294
60.348
60.347
60.364
60.315
60.391
60.213
59.9729
59.9432
59.9232
59.8935
59.8652
59.9006
59.9751
60.428
60.780
60.1079
60.1346
60.1155
60.805
60.668
60.533
60.218
59.9779
59.9618
59.9484
59.9174
59.8935
59.9099
59.9476
59.9912
60.396
60.620
60.659
60.627
60.582
60.541
60.444
60.442
60.355
59.9935
59.9508
59.9215
59.8948
59.8519
59.8595
59.9254
60.6
60.344
60.566
60.849
60.793
60.440
60.204
60.84
59.9877
59.9443
59.9130
59.9029
59.8859
59.8637
59.8684
59.9062
59.9539
60.42
60.352
60.437
60.438
60.466
60.450
60.369
60.319
60.357
60.41
59.9618
59.9429
59.9216
59.8867
59.8764
59.9321
60.61
60.592
60.906
60.1223
60.1378
60.1088
60.785
60.684
60.560
60.128
59.9778
59.9673
59.9514
59.9210
59.9110
59.9416
59.9814
60.304
60.717
60.828
60.789
60.691
60.619
60.539
60.448
60.523
60.311
59.9869
59.9465
59.9185
59.8844
59.8496
59.8819
59.9589
60.260
60.552
60.777
60.1014
60.828
60.479
60.322
60.213
59.9916
59.9442
59.9198
59.9124
59.8903
59.8705
59.8873
59.9302
59.9772
60.248
60.464
60.473
60.519
60.521
60.489
60.398
60.412
60.344
59.9969
59.9615
59.9458
59.9228
59.8883
59.8995
59.9670
60.402
60.801
60.1149
60.1484
60.1468
60.1104
60.890
60.759
60.532
60.41
59.9775
59.9694
59.9445
59.9164
59.9192
59.9551
59.9928
60.373
60.638
60.681
60.603
60.549
60.525
60.423
60.409
60.430
60.109
59.9659
59.9328
59.9022
59.8638
59.8516
59.8993
59.9723
60.252
60.472
60.739
60.862
60.564
60.190
60.54
59.9903
59.9501
59.9104
59.8944
59.8828
59.8621
59.8560
59.8892
59.9348
59.9842
60.181
60.323
60.323
60.368
60.371
60.331
60.219
60.272
60.107
59.9711
59.9378
59.9217
59.8913
59.8625
59.8968
59.9679
60.369
60.698
60.994
60.1240
60.1066
60.667
60.533
60.428
60.129
59.9639
59.9475
59.9332
59.9031
59.8786
59.8949
59.9328
59.9719
60.164
60.367
60.335
60.296
60.273
60.184
60.113
60.132
60.81
59.9685
59.9257
59.8967
59.8686
59.8252
59.8353
59.8959
59.9688
60.79
60.312
60.597
60.571
60.221
59.9967
59.9888
59.9649
59.9156
59.8800
59.8673
59.8489
59.8232
59.8217
59.8551
59.8933
59.9392
59.9696
59.9794
59.9816
59.9818
59.9842
59.9813
59.9835
59.9935
59.9628
59.9198
59.8959
59.8761
59.8380
59.8189
59.8681
59.9445
60.28
60.347
60.701
60.919
60.631
60.295
60.197
60.64
59.9674
59.9230
59.9125
59.8929
59.8584
59.8413
59.8688
59.9098
59.9561
59.9971
60.160
60.154
60.126
60.63
59.9945
59.9820
59.9920
59.9700
59.9302
59.8882
59.8600
59.8260
59.7906
59.8133
59.8829
59.9519
59.9797
60.44
60.310
60.187
59.9871
59.9722
59.9645
59.9433
59.8939
59.8709
59.8601
59.8388
59.8136
59.8245
59.8660
59.9125
59.9595
59.9880
59.9941
60.6
60.39
60.37
59.9955
59.9985
59.9970
59.9645
59.9285
59.9129
59.8883
59.8496
59.8558
59.9197
59.9933
60.423
60.725
60.1013
60.1054
60.689
60.439
60.337
60.152
59.9664
59.9382
59.9272
59.9018
59.8696
59.8659
59.8993
59.9375
59.9861
60.205
60.312
60.303
60.250
60.218
60.140
60.71
60.152
59.9878
59.9418
59.9055
59.8764
59.8376
59.8172
59.8565
59.9287
59.9838
60.78
60.315
60.474
60.244
59.9898
59.9769
59.9632
59.9260
59.8803
59.8624
59.8473
59.8222
59.8044
59.8264
59.8696
59.9157
59.9550
59.9737
59.9747
59.9811
59.9849
59.9820
59.9777
59.9839
59.9722
59.9328
59.9017
59.8823
59.8519
59.8188
59.8386
59.9094
59.9829
60.220
60.528
60.828
60.750
60.371
60.214
60.122
59.9855
59.9355
59.9128
59.9023
59.8763
59.8532
59.8609
59.8964
59.9348
59.9816
60.116
60.181
60.184
60.179
60.152
60.113
60.126
60.119
59.9783
59.9348
59.9008
59.8674
59.8261
59.8185
59.8741
59.9493
59.9918
60.147
60.416
60.496
60.199
59.9935
59.9837
59.9679
59.9256
59.8910
59.8799
59.8649
59.8386
59.8294
59.8631
59.9038
59.9521
59.9866
60.10
60.55
60.104
60.173
60.168
60.142
60.239
60.11
59.9550
59.9280
59.9115
59.8782
59.8567
59.8962
59.9704
60.355
60.688
60.1043
60.1290
60.1072
60.715
60.601
60.459
60.127
59.9685
59.9550
59.9408
59.9104
59.8904
59.9113
59.9485
59.9867
60.314
60.498
60.509
60.502
60.520
60.459
60.418
60.460
60.375
59.9969
59.9525
59.9238
59.8851
59.8480
59.8595
59.9282
59.9975
60.258
60.491
60.778
60.678
60.316
60.136
60.53
59.9883
59.9403
59.9138
59.9032
59.8839
59.8586
59.8624
59.8989
59.9395
59.9859
60.110
60.136
60.208
60.225
60.214
60.187
60.213
60.257
59.9890
59.9521
59.9322
59.9078
59.8734
59.8677
59.9268
60.13
60.512
60.806
60.1146
60.1234
60.939
60.701
60.611
60.436
60.0
59.9660
59.9473
59.9269
59.8930
59.8799
59.9127
59.9492
59.9933
60.301
60.441
60.428
60.384
60.362
60.296
60.256
60.304
60.51
59.9638
59.9213
59.8947
59.8546
59.8269
59.8567
59.9282
59.9934
60.158
60.423
60.675
60.482
60.148
60.30
59.9894
59.9589
59.9133
59.8910
59.8802
59.8561
59.8359
59.8531
59.8950
59.9393
59.9829
60.59
60.111
60.197
60.236
60.219
60.167
60.202
60.146
59.9723
59.9401
59.9264
59.8979
59.8608
59.8795
59.9453
60.188
60.630
60.968
60.1308
60.1267
60.886
60.690
60.600
60.373
59.9854
59.9604
59.9482
59.9168
59.8883
59.8923
59.9262
59.9609
60.93
60.367
60.456
60.460
60.443
60.399
60.360
60.337
60.350
59.9997
59.9554
59.9169
59.8878
59.8437
59.8311
59.8816
59.9570
60.61
60.292
60.567
60.693
60.410
60.108
60.0
59.9858
59.9433
59.9049
59.8928
59.8764
59.8486
59.8368
59.8640
59.9057
59.9553
59.9922
60.79
60.160
60.181
60.212
60.156
60.103
60.217
60.5
59.9581
59.9281
59.9073
59.8756
59.8491
59.8872
59.9580
60.272
60.606
60.945
60.1240
60.1019
60.680
60.536
60.419
60.104
59.9608
59.9432
59.9281
59.8954
59.8720
59.8886
59.9221
59.9641
60.129
60.332
60.318
60.328
60.276
60.210
60.135
60.123
60.35
59.9669
59.9206
59.8878
59.8537
59.8124
59.8200
59.8816
59.9578
59.9910
60.126
60.386
60.405
60.23
59.9821
59.9728
59.9500
59.9020
59.8745
59.8629
59.8431
59.8178
59.8176
59.8534
59.8970
59.9471
59.9756
59.9850
59.9871
59.9927
59.9949
59.9863
59.9872
59.9936
59.9643
59.9242
59.9002
59.8806
59.8437
59.8341
59.8845
59.9588
60.161
60.484
60.879
60.1017
60.726
60.444
60.359
60.201
59.9783
59.9391
59.9292
59.9124
59.8821
59.8702
59.9027
59.9438
59.9899
60.285
60.412
60.355
60.318
60.264
60.220
60.162
60.269
60.108
59.9656
59.9264
59.9016
59.8647
59.8319
59.8591
59.9302
59.9983
60.228
60.475
60.731
60.566
60.215
60.64
59.9939
59.9647
59.9197
59.8991
59.8899
59.8700
59.8494
59.8666
59.9088
59.9559
59.9976
60.217
60.250
60.280
60.301
60.309
60.257
60.307
60.312
59.9970
59.9622
59.9432
59.9186
59.8821
59.8954
59.9601
60.333
60.753
60.1068
60.1383
60.1348
60.977
60.748
60.677
60.451
59.9980
59.9706
59.9605
59.9383
59.9093
59.9082
59.9433
59.9825
60.310
60.611
60.672
60.656
60.615
60.548
60.448
60.420
60.453
60.182
59.9702
59.9349
59.9064
59.8684
59.8515
59.9003
59.9764
60.317
60.545
60.771
60.930
60.583
60.251
60.122
59.9935
59.9539
59.9117
59.8989
59.8849
59.8614
59.8487
59.8792
59.9246
59.9710
60.107
60.291
60.325
60.353
60.352
60.314
60.257
60.340
60.166
59.9760
59.9434
59.9259
59.8953
59.8627
59.8963
59.9688
60.366
60.733
60.1048
60.1340
60.1107
60.779
60.612
60.488
60.160
59.9677
59.9517
59.9392
59.9107
59.8873
59.9041
59.9423
59.9823
60.271
60.511
60.504
60.504
60.504
60.443
60.361
60.377
60.294
59.9922
59.9515
59.9234
59.8912
59.8518
59.8580
59.9194
59.9951
60.351
60.556
60.832
60.825
60.483
60.224
60.115
59.9934
59.9440
59.9122
59.9022
59.8827
59.8608
59.8569
59.8931
59.9323
59.9793
60.44
60.140
60.180
60.196
60.230
60.171
60.204
60.296
60.50
59.9687
59.9482
59.9288
59.8970
59.8869
59.9374
60.128
60.659
60.945
60.1260
60.1425
60.1111
60.806
60.686
60.541
60.150
59.9744
59.9650
59.9501
59.9207
59.9083
59.9361
59.9760
60.191
60.600
60.758
60.709
60.640
60.605
60.543
60.477
60.542
60.381
59.9962
59.9559
59.9288
59.8925
59.8568
59.8844
59.9548
60.201
60.509
60.742
60.1020
60.853
60.503
60.333
60.228
59.9949
59.9482
59.9291
59.9212
59.9020
59.8838
59.8955
59.9338
59.9737
60.162
60.356
60.379
60.391
60.407
60.406
60.341
60.411
60.388
59.9987
59.9655
59.9494
59.9259
59.8945
59.9092
59.9742
60.474
60.904
60.1204
60.1532
60.1521
60.1141
60.920
60.823
60.631
60.144
59.9894
59.9799
59.9554
59.9281
59.9268
59.9620
60.23
60.507
60.788
60.819
60.769
60.673
60.627
60.509
60.456
60.515
60.226
59.9814
59.9484
59.9234
59.8865
59.8720
59.9217
59.9969
60.513
60.706
60.986
60.1127
60.869
60.547
60.435
60.294
59.9920
59.9491
59.9376
59.9249
59.9023
59.8887
59.9183
59.9592
60.61
60.440
60.566
60.557
60.584
60.609
60.582
60.563
60.680
60.561
60.209
59.9984
59.9822
59.9530
59.9276
59.9581
60.293
60.974
60.1292
60.1554
60.1795
60.1604
60.1229
60.1095
60.968
60.672
60.193
60.28
59.9898
59.9629
59.9406
59.9565
59.9959
60.354
60.814
60.1060
60.1045
60.1032
60.1003
60.955
60.894
60.944
60.884
60.477
60.31
59.9748
59.9409
59.9013
59.9076
59.9731
60.411
60.787
60.1061
60.1300
60.1263
60.923
60.750
60.706
60.548
60.83
59.9793
59.9667
59.9480
59.9213
59.9203
59.9605
59.9996
60.471
60.719
60.792
60.861
60.905
60.909
60.876
60.904
60.976
60.692
60.304
60.131
59.9930
59.9547
59.9448
59.9984
60.730
60.1249
60.1500
60.1808
60.1936
60.1610
60.1331
60.1233
60.1088
60.651
60.291
60.172
59.9973
59.9692
59.9598
59.9857
60.221
60.674
60.1032
60.1139
60.1104
60.1028
60.1034
60.972
60.942
60.1024
60.834
60.414
60.15
59.9737
59.9350
59.9056
59.9385
60.86
60.707
60.929
60.1185
60.1366
60.1125
60.765
60.646
60.529
60.229
59.9741
59.9601
59.9493
59.9251
59.9071
59.9252
59.9623
60.47
60.450
60.645
60.663
60.702
60.691
60.652
60.597
60.655
60.620
60.198
59.9879
59.9694
59.9437
59.9081
59.9221
59.9877
60.576
60.936
60.1218
60.1510
60.1445
60.1063
60.878
60.757
60.540
60.74
59.9876
59.9796
59.9543
59.9285
59.9334
59.9708
60.88
60.538
60.800
60.838
60.795
60.743
60.685
60.600
60.586
60.609
60.279
59.9835
59.9506
59.9253
59.8857
59.8782
59.9322
60.61
60.525
60.748
60.997
60.1098
60.826
60.535
60.454
60.285
59.9857
59.9492
59.9354
59.9201
59.8941
59.8838
59.9147
59.9609
60.70
60.413
60.534
60.515
60.529
60.519
60.464
60.467
60.581
60.357
59.9942
59.9694
59.9529
59.9246
59.9015
59.9428
60.188
60.818
60.1149
60.1454
60.1705
60.1462
60.1151
60.1052
60.937
60.572
60.130
59.9973
59.9782
59.9473
59.9290
59.9522
59.9942
60.392
60.845
60.1050
60.1009
60.989
60.945
60.881
60.823
60.846
60.736
60.316
59.9896
59.9601
59.9248
59.8822
59.8958
59.9655
60.376
60.720
60.935
60.1207
60.1144
60.779
60.607
60.517
60.334
59.9867
59.9609
59.9510
59.9315
59.9030
59.9109
59.9495
59.9926
60.427
60.666
60.700
60.721
60.756
60.779
60.707
60.728
60.751
60.429
60.45
59.9888
59.9651
59.9306
59.9288
59.9881
60.603
60.1078
60.1381
60.1678
60.1751
60.1389
60.1093
60.970
60.761
60.302
59.9998
59.9870
59.9678
59.9413
59.9327
59.9605
59.9959
60.418
60.782
60.838
60.810
60.760
60.721
60.672
60.628
60.725
60.460
60.39
59.9637
59.9357
59.8956
59.8708
59.9095
59.9812
60.421
60.652
60.866
60.1070
60.872
60.555
60.458
60.360
60.48
59.9578
59.9370
59.9218
59.8954
59.8741
59.8958
59.9344
59.9781
60.189
60.414
60.486
60.562
60.649
60.614
60.618
60.692
60.599
60.210
59.9891
59.9729
59.9400
59.9014
59.9197
59.9907
60.630
60.1007
60.1319
60.1649
60.1595
60.1248
60.1097
60.1002
60.774
60.277
60.44
59.9928
59.9625
59.9360
59.9412
59.9759
60.145
60.621
60.886
60.882
60.863
60.839
60.813
60.729
60.743
60.782
60.422
59.9953
59.9612
59.9321
59.8908
59.8833
59.9391
60.169
60.586
60.813
60.1057
60.1133
60.812
60.564
60.489
60.341
59.9891
59.9553
59.9438
59.9255
59.9027
59.8975
59.9310
59.9755
60.195
60.544
60.713
60.737
60.742
60.750
60.714
60.662
60.748
60.536
60.128
59.9878
59.9703
59.9349
59.9151
59.9597
60.350
60.987
60.1301
60.1644
60.1873
60.1654
60.1346
60.1235
60.1081
60.688
60.234
60.53
59.9878
59.9541
59.9348
59.9546
59.9941
60.384
60.832
60.1012
60.988
60.983
60.955
60.904
60.802
60.852
60.713
60.274
59.9833
59.9554
59.9208
59.8805
59.9007
59.9656
60.376
60.735
60.965
60.1237
60.1166
60.825
60.647
60.522
60.267
59.9764
59.9498
59.9371
59.9154
59.8937
59.8996
59.9377
59.9839
60.348
60.607
60.695
60.794
60.836
60.829
60.760
60.751
60.720
60.351
59.9964
59.9733
59.9479
59.9089
59.9130
59.9791
60.564
60.1045
60.1352
60.1742
60.1798
60.1485
60.1210
60.1092
60.891
60.411
60.44
59.9917
59.9702
59.9396
59.9343
59.9690
60.83
60.602
60.956
60.1055
60.1010
60.983
60.905
60.844
60.787
60.862
60.583
60.85
59.9712
59.9386
59.8972
59.8722
59.9136
59.9921
60.501
60.773
60.1080
60.1271
60.1032
60.776
60.670
60.525
60.149
59.9668
59.9491
59.9317
59.9030
59.8858
59.9114
59.9546
60.16
60.480
60.678
60.725
60.789
60.836
60.802
60.734
60.808
60.654
60.259
59.9935
59.9735
59.9397
59.9098
59.9378
60.138
60.820
60.1194
60.1519
60.1821
60.1676
60.1331
60.1190
60.1084
60.783
60.285
60.77
59.9970
59.9655
59.9392
59.9499
59.9895
60.284
60.811
60.1087
60.1098
60.1056
60.999
60.902
60.796
60.788
60.730
60.324
59.9897
59.9592
59.9264
59.8825
59.8856
59.9462
60.235
60.614
60.828
60.1088
60.1070
60.744
60.511
60.410
60.212
59.9744
59.9416
59.9313
59.9111
59.8826
59.8793
59.9140
59.9548
60.53
60.348
60.442
60.496
60.522
60.534
60.501
60.488
60.563
60.242
59.9796
59.9568
59.9345
59.8983
59.8852
59.9367
60.150
60.771
60.1067
60.1408
60.1589
60.1302
60.982
60.870
60.718
60.302
59.9890
59.9773
59.9614
59.9308
59.9160
59.9393
59.9791
60.227
60.616
60.804
60.807
60.802
60.771
60.689
60.591
60.685
60.483
59.9990
59.9564
59.9249
59.8870
59.8550
59.8813
59.9546
60.251
60.555
60.828
60.1087
60.953
60.639
60.481
60.351
60.81
59.9559
59.9306
59.9179
59.8920
59.8687
59.8791
59.9239
59.9701
60.145
60.399
60.451
60.537
60.601
60.585
60.559
60.593
60.570
60.204
59.9842
59.9669
59.9398
59.8983
59.9054
59.9694
60.452
60.901
60.1199
60.1554
60.1600
60.1247
60.1061
60.950
60.729
60.207
59.9889
59.9793
59.9521
59.9197
59.9212
59.9539
59.9978
60.462
60.779
60.840
60.849
60.808
60.771
60.711
60.657
60.669
60.346
59.9851
59.9462
59.9150
59.8751
59.8550
59.9030
59.9834
60.374
60.597
60.883
60.1056
60.778
60.492
60.405
60.282
59.9893
59.9432
59.9258
59.9082
59.8823
59.8672
59.8904
59.9338
59.9803
60.227
60.420
60.425
60.468
60.490
60.462
60.431
60.533
60.347
59.9910
59.9617
59.9461
59.9127
59.8794
59.9119
59.9826
60.494
60.818
60.1144
60.1416
60.1248
60.878
60.712
60.614
60.307
59.9860
59.9695
59.9531
59.9188
59.8945
59.9049
59.9414
59.9836
60.317
60.573
60.590
60.575
60.566
60.491
60.426
60.435
60.400
60.1
59.9541
59.9198
59.8886
59.8447
59.8467
59.9070
59.9840
60.223
60.457
60.745
60.765
60.405
60.184
60.85
59.9901
59.9452
59.9134
59.9043
59.8877
59.8621
59.8587
59.8923
59.9354
59.9828
60.148
60.200
60.234
60.250
60.294
60.248
60.264
60.359
60.95
59.9737
59.9499
59.9306
59.8912
59.8754
59.9217
59.9960
60.472
60.781
60.1121
60.1282
60.1029
60.705
60.637
60.504
60.106
59.9718
59.9590
59.9409
59.9132
59.9002
59.9250
59.9653
60.84
60.492
60.624
60.563
60.479
60.458
60.395
60.311
60.373
60.191
59.9749
59.9352
59.9027
59.8691
59.8316
59.8572
59.9290
59.9959
60.264
60.512
60.774
60.619
60.267
60.130
59.9976
59.9708
59.9208
59.8950
59.8813
59.8553
59.8336
59.8450
59.8844
59.9274
59.9739
59.9960
60.32
60.110
60.168
60.165
60.141
60.195
60.154
59.9802
59.9414
59.9218
59.8951
59.8563
59.8626
59.9256
60.9
60.446
60.789
60.1138
60.1177
60.826
60.563
60.462
60.251
59.9772
59.9470
59.9362
59.9129
59.8827
59.8829
59.9197
59.9622
60.89
60.407
60.475
60.465
60.397
60.352
60.263
60.175
60.227
59.9935
59.9470
59.9097
59.8819
59.8411
59.8229
59.8674
59.9431
60.15
60.210
60.462
60.646
60.406
60.81
59.9990
59.9860
59.9484
59.9040
59.8868
59.8723
59.8480
59.8330
59.8615
59.9040
59.9479
59.9871
60.58
60.89
60.131
60.154
60.120
60.44
60.151
60.9
59.9569
59.9302
59.9161
59.8858
59.8540
59.8848
59.9579
60.294
60.655
60.987
60.1285
60.1153
60.783
60.616
60.502
60.207
59.9694
59.9475
59.9336
59.9043
59.8801
59.8881
59.9248
59.9657
60.171
60.469
60.501
60.474
60.466
60.415
60.332
60.331
60.274
59.9907
59.9473
59.9170
59.8829
59.8437
59.8444
59.9050
59.9812
60.253
60.439
60.691
60.744
60.422
60.195
60.114
59.9930
59.9452
59.9068
59.8938
59.8793
59.8549
59.8500
59.8905
59.9324
59.9850
60.183
60.341
60.371
60.407
60.434
60.380
60.335
60.430
60.182
59.9745
59.9531
59.9330
59.8949
59.8759
59.9248
59.9992
60.596
60.909
60.1268
60.1493
60.1245
60.951
60.851
60.675
60.306
59.9834
59.9678
59.9468
59.9148
59.8979
59.9222
59.9632
60.60
60.532
60.715
60.734
60.702
60.698
60.623
60.518
60.531
60.382
59.9934
59.9504
59.9224
59.8855
59.8485
59.8677
59.9370
60.65
60.373
60.625
60.901
60.803
60.481
60.302
60.196
59.9941
59.9453
59.9199
59.9088
59.8855
59.8630
59.8750
59.9136
59.9588
60.50
60.303
60.336
60.385
60.441
60.483
60.438
60.465
60.463
60.58
59.9687
59.9518
59.9229
59.8834
59.8865
59.9491
60.222
60.727
60.1052
60.1429
60.1510
60.1186
60.952
60.888
60.709
60.206
59.9871
59.9693
59.9441
59.9077
59.9004
59.9323
59.9725
60.216
60.605
60.734
60.747
60.740
60.719
60.637
60.588
60.679
60.323
59.9860
59.9495
59.9186
59.8787
59.8568
59.9016
59.9813
60.409
60.709
60.979
60.1152
60.875
60.560
60.445
60.312
59.9943
59.9492
59.9336
59.9177
59.8896
59.8744
59.8967
59.9410
59.9912
60.362
60.560
60.619
60.700
60.744
60.718
60.670
60.749
60.614
60.183
59.9856
59.9644
59.9338
59.8987
59.9258
59.9957
60.675
60.1039
60.1374
60.1699
60.1573
60.1235
60.1123
60.1016
60.742
60.248
60.34
59.9916
59.9583
59.9320
59.9429
59.9775
60.200
60.671
60.925
60.955
60.904
60.913
60.871
60.736
60.761
60.717
60.318
59.9869
59.9483
59.9160
59.8717
59.8713
59.9299
60.50
60.449
60.724
60.1028
60.1100
60.813
60.604
60.506
60.359
59.9889
59.9552
59.9443
59.9222
59.8963
59.8899
59.9231
59.9637
60.94
60.452
60.609
60.677
60.726
60.799
60.818
60.774
60.863
60.605
60.165
59.9910
59.9679
59.9305
59.9126
59.9621
60.396
60.982
60.1320
60.1682
60.1933
60.1663
60.1361
60.1287
60.1154
60.740
60.302
60.114
59.9933
59.9568
59.9396
59.9653
60.28
60.535
60.949
60.1152
60.1151
60.1142
60.1145
60.1099
60.1053
60.1101
60.934
60.469
60.34
59.9734
59.9330
59.8953
59.9205
59.9909
60.611
60.893
60.1169
60.1466
60.1331
60.993
60.837
60.708
60.408
59.9911
59.9687
59.9566
59.9340
59.9121
59.9239
59.9669
60.90
60.545
60.826
60.885
60.934
60.992
60.1005
60.987
60.1059
60.1025
60.635
60.239
60.35
59.9730
59.9319
59.9427
60.63
60.814
60.1269
60.1594
60.1927
60.1927
60.1615
60.1431
60.1359
60.1169
60.700
60.443
60.336
60.50
59.9719
59.9715
60.18
60.435
60.893
60.1225
60.1279
60.1257
60.1235
60.1244
60.1190
60.1194
60.1254
60.934
60.497
60.138
59.9841
59.9395
59.9212
59.9677
60.428
60.901
60.1114
60.1390
60.1579
60.1316
60.1059
60.996
60.855
60.453
60.47
59.9907
59.9754
59.9439
59.9302
59.9578
59.9979
60.417
60.769
60.945
60.970
60.1016
60.1070
60.1081
60.1063
60.1187
60.992
60.586
60.334
60.156
59.9809
59.9514
59.9845
60.553
60.1250
60.1525
60.1837
60.2080
60.1834
60.1511
60.1391
60.1256
60.903
60.425
60.262
60.106
59.9802
59.9570
59.9765
60.153
60.571
60.1005
60.1232
60.1211
60.1197
60.1130
60.1033
60.966
60.1010
60.922
60.496
60.50
59.9737
59.9385
59.8963
59.9061
59.9692
60.409
60.745
60.1010
60.1287
60.1207
60.891
60.673
60.613
60.384
59.9912
59.9607
59.9481
59.9268
59.8986
59.9021
59.9377
59.9818
60.280
60.541
60.642
60.690
60.708
60.723
60.664
60.688
60.716
60.376
59.9970
59.9743
59.9469
59.9066
59.9013
59.9576
60.310
60.828
60.1144
60.1495
60.1620
60.1308
60.1038
60.944
60.787
60.355
59.9973
59.9867
59.9685
59.9344
59.9219
59.9501
59.9862
60.327
60.697
60.860
60.864
60.835
60.821
60.761
60.706
60.808
60.571
60.113
59.9699
59.9434
59.9027
59.8739
59.9069
59.9808
60.438
60.700
60.950
60.1176
60.987
60.641
60.535
60.479
60.139
59.9652
59.9473
59.9310
59.9036
59.8840
59.9022
59.9416
59.9863
60.324
60.531
60.569
60.662
60.713
60.709
60.686
60.774
60.688
60.270
59.9939
59.9757
59.9450
59.9072
59.9273
59.9994
60.691
60.1056
60.1409
60.1725
60.1664
60.1339
60.1155
60.1052
60.801
60.306
60.84
59.9946
59.9668
59.9402
59.9427
59.9799
60.196
60.697
60.974
60.1000
60.993
60.951
60.932
60.896
60.897
60.924
60.576
60.131
59.9770
59.9433
59.8989
59.8916
59.9413
60.193
60.678
60.905
60.1193
60.1311
60.1002
60.744
60.647
60.472
60.0
59.9613
59.9475
59.9271
59.8988
59.8870
59.9185
59.9596
60.50
60.384
60.509
60.538
60.600
60.623
60.633
60.626
60.745
60.531
60.114
59.9873
59.9679
59.9310
59.9080
59.9484
60.207
60.825
60.1143
60.1476
60.1702
60.1473
60.1113
60.1011
60.879
60.523
60.111
59.9997
59.9820
59.9492
59.9310
59.9532
59.9930
60.352
60.801
60.964
60.952
60.935
60.905
60.840
60.791
60.848
60.713
60.270
59.9838
59.9542
59.9210
59.8864
59.9062
59.9758
60.481
60.814
60.1087
60.1400
60.1363
60.1035
60.866
60.743
60.504
59.9985
59.9716
59.9570
59.9330
59.9095
59.9129
59.9547
59.9990
60.515
60.804
60.901
60.983
60.994
60.1002
60.973
60.957
60.979
60.627
60.224
60.21
59.9763
59.9365
59.9388
60.31
60.794
60.1286
60.1616
60.1974
60.2049
60.1741
60.1523
60.1463
60.1262
60.800
60.500
60.371
60.104
59.9775
59.9699
60.44
60.456
60.930
60.1307
60.1362
60.1358
60.1325
60.1266
60.1150
60.1101
60.1171
60.860
60.425
60.25
59.9719
59.9301
59.9087
59.9460
60.190
60.766
60.1000
60.1257
60.1454
60.1226
60.960
60.858
60.752
60.400
59.9966
59.9779
59.9637
59.9367
59.9211
59.9427
59.9836
60.318
60.712
60.890
60.954
60.1012
60.1086
60.1068
60.1029
60.1110
60.948
60.498
60.199
60.47
59.9718
59.9402
59.9686
60.384
60.1083
60.1439
60.1787
60.2084
60.1921
60.1574
60.1421
60.1329
60.995
60.518
60.316
60.193
59.9886
59.9663
59.9806
60.142
60.548
60.1013
60.1249
60.1282
60.1236
60.1236
60.1152
60.1061
60.1074
60.1005
60.608
60.155
59.9797
59.9459
59.9058
59.9085
59.9718
60.474
60.891
60.1110
60.1444
60.1469
60.1127
60.897
60.821
60.647
60.159
59.9805
59.9672
59.9456
59.9202
59.9181
59.9519
59.9962
60.450
60.746
60.846
60.928
60.961
60.1008
60.946
60.930
60.970
60.640
60.226
59.9994
59.9787
59.9383
59.9283
59.9845
60.598
60.1202
60.1489
60.1861
60.2038
60.1753
60.1445
60.1350
60.1185
60.756
60.382
60.233
60.61
59.9741
59.9607
59.9894
60.286
60.763
60.1173
60.1295
60.1263
60.1230
60.1212
60.1114
60.1025
60.1068
60.854
60.436
59.9981
59.9696
59.9323
59.9002
59.9301
60.21
60.683
60.953
60.1210
60.1459
60.1306
60.959
60.849
60.746
60.432
59.9939
59.9716
59.9574
59.9287
59.9076
59.9230
59.9659
60.160
60.632
60.880
60.947
60.1006
60.1059
60.1043
60.996
60.1076
60.1039
60.652
60.328
60.164
59.9891
59.9502
59.9610
60.304
60.993
60.1366
60.1690
60.2018
60.1950
60.1564
60.1353
60.1288
60.1075
60.623
60.374
60.258
59.9994
59.9706
59.9724
60.91
60.474
60.960
60.1242
60.1231
60.1239
60.1199
60.1147
60.1037
60.979
60.962
60.610
60.150
59.9799
59.9524
59.9109
59.9001
59.9611
60.321
60.839
60.1038
60.1331
60.1426
60.1108
60.837
60.735
60.563
60.116
59.9706
59.9575
59.9383
59.9135
59.9007
59.9324
59.9773
60.248
60.612
60.749
60.781
60.803
60.792
60.737
60.670
60.756
60.528
60.94
59.9825
59.9633
59.9309
59.9089
59.9513
60.281
60.950
60.1306
60.1660
60.1891
60.1643
60.1285
60.1183
60.1002
60.628
60.171
59.9966
59.9778
59.9467
59.9283
59.9491
59.9871
60.305
60.797
60.1015
60.1033
60.1023
60.981
60.891
60.791
60.834
60.713
60.271
59.9860
59.9575
59.9248
59.8844
59.9019
59.9700
60.408
60.755
60.943
60.1218
60.1134
60.818
60.641
60.570
60.389
59.9908
59.9618
59.9499
59.9304
59.9056
59.9088
59.9453
59.9885
60.372
60.658
60.723
60.778
60.822
60.822
60.764
60.784
60.794
60.441
60.50
59.9832
59.9564
59.9170
59.9129
59.9714
60.477
60.989
60.1280
60.1624
60.1730
60.1401
60.1140
60.1017
60.883
60.416
60.84
59.9963
59.9705
59.9385
59.9290
59.9617
60.25
60.506
60.884
60.1000
60.962
60.933
60.916
60.805
60.732
60.781
60.532
60.49
59.9622
59.9341
59.8909
59.8665
59.9057
59.9815
60.406
60.642
60.887
60.1075
60.809
60.507
60.398
60.240
59.9860
59.9441
59.9236
59.9121
59.8888
59.8736
59.8972
59.9421
59.9891
60.303
60.493
60.525
60.573
60.574
60.490
60.398
60.440
60.335
59.9930
59.9602
59.9457
59.9158
59.8821
59.9071
59.9782
60.493
60.910
60.1208
60.1535
60.1432
60.1063
60.847
60.756
60.466
59.9958
59.9716
59.9593
59.9301
59.9056
59.9165
59.9555
59.9972
60.474
60.751
60.762
60.684
60.617
60.524
60.421
60.406
60.389
60.34
59.9566
59.9242
59.8944
59.8539
59.8510
59.9094
59.9894
60.309
60.510
60.747
60.816
60.451
60.189
60.99
59.9941
59.9520
59.9131
59.9025
59.8853
59.8585
59.8483
59.8789
59.9196
59.9655
59.9972
60.92
60.103
60.169
60.162
60.128
60.144
60.251
60.33
59.9664
59.9376
59.9178
59.8813
59.8592
59.8995
59.9707
60.322
60.673
60.1012
60.1282
60.1049
60.747
60.645
60.523
60.176
59.9723
59.9554
59.9399
59.9103
59.8906
59.9139
59.9528
59.9943
60.394
60.575
60.602
60.530
60.457
60.393
60.290
60.343
60.219
59.9797
59.9327
59.9028
59.8687
59.8322
59.8537
59.9239
59.9964
60.312
60.541
60.840
60.763
60.391
60.192
60.84
59.9857
59.9373
59.9108
59.9007
59.8800
59.8602
59.8676
59.9090
59.9553
60.35
60.328
60.370
60.413
60.439
60.439
60.372
60.376
60.419
60.55
59.9681
59.9454
59.9202
59.8809
59.8772
59.9402
60.130
60.604
60.918
60.1232
60.1353
60.1033
60.784
60.701
60.566
60.125
59.9757
59.9642
59.9449
59.9158
59.9038
59.9342
59.9712
60.166
60.556
60.656
60.600
60.558
60.532
60.481
60.423
60.504
60.251
59.9837
59.9428
59.9140
59.8774
59.8478
59.8868
59.9576
60.170
60.423
60.656
60.851
60.656
60.345
60.238
60.124
59.9803
59.9341
59.9122
59.8975
59.8666
59.8437
59.8647
59.9025
59.9483
59.9914
60.104
60.133
60.191
60.252
60.249
60.237
60.297
60.227
59.9837
59.9490
59.9294
59.8981
59.8595
59.8784
59.9458
60.162
60.554
60.923
60.1289
60.1237
60.879
60.717
60.631
60.357
59.9853
59.9629
59.9498
59.9207
59.8906
59.8952
59.9313
59.9684
60.161
60.472
60.516
60.522
60.508
60.515
60.444
60.426
60.466
60.127
59.9645
59.9290
59.8974
59.8548
59.8438
59.8943
59.9685
60.171
60.393
60.694
60.813
60.534
60.276
60.216
60.92
59.9698
59.9298
59.9217
59.9051
59.8763
59.8655
59.8938
59.9376
59.9885
60.268
60.414
60.478
60.564
60.625
60.603
60.589
60.694
60.459
60.31
59.9738
59.9515
59.9138
59.8906
59.9296
60.25
60.684
60.1034
60.1366
60.1663
60.1495
60.1170
60.1085
60.948
60.591
60.98
59.9933
59.9756
59.9412
59.9191
59.9354
59.9725
60.163
60.603
60.815
60.829
60.833
60.818
60.732
60.677
60.732
60.618
60.142
59.9650
59.9299
59.8939
59.8496
59.8617
59.9281
60.2
60.366
60.629
60.935
60.897
60.602
60.394
60.294
60.38
59.9494
59.9159
59.8995
59.8708
59.8428
59.8442
59.8819
59.9245
59.9739
60.52
60.153
60.263
60.335
60.358
60.308
60.312
60.339
59.9955
59.9504
59.9289
59.9013
59.8611
59.8549
59.9175
59.9938
60.505
60.871
60.1256
60.1400
60.1099
60.857
60.729
60.532
60.39
59.9635
59.9485
59.9255
59.8950
59.8906
59.9225
59.9615
60.101
60.467
60.630
60.623
60.595
60.523
60.431
60.373
60.415
60.163
59.9703
59.9294
59.8982
59.8590
59.8328
59.8684
59.9457
60.67
60.322
60.599
60.878
60.688
60.372
60.277
60.166
59.9837
59.9362
59.9163
59.9025
59.8774
59.8588
59.8769
59.9191
59.9650
60.42
60.302
60.359
60.440
60.524
60.531
60.496
60.558
60.475
60.53
59.9677
59.9455
59.9147
59.8742
59.8932
59.9616
60.323
60.730
60.1095
60.1441
60.1419
60.1111
60.955
60.886
60.608
60.67
59.9784
59.9644
59.9360
59.9057
59.9114
59.9459
59.9878
60.427
60.749
60.795
60.783
60.778
60.735
60.685
60.667
60.645
60.252
59.9750
59.9373
59.9062
59.8628
59.8541
59.9116
59.9914
60.391
60.635
60.947
60.1063
60.767
60.515
60.440
60.259
59.9816
59.9424
59.9229
59.9017
59.8726
59.8583
59.8868
59.9288
59.9754
60.163
60.316
60.375
60.467
60.548
60.526
60.528
60.623
60.337
59.9878
59.9566
59.9321
59.8917
59.8622
59.9050
59.9781
60.448
60.769
60.1150
60.1418
60.1212
60.899
60.781
60.637
60.297
59.9848
59.9660
59.9480
59.9115
59.8878
59.9079
59.9470
59.9898
60.398
60.641
60.680
60.682
60.649
60.588
60.508
60.511
60.352
59.9903
59.9423
59.9073
59.8749
59.8321
59.8443
59.9113
59.9829
60.165
60.391
60.698
60.648
60.312
60.142
60.81
59.9854
59.9356
59.9046
59.8930
59.8698
59.8425
59.8442
59.8806
59.9218
59.9694
59.9945
60.49
60.109
60.166
60.185
60.157
60.145
60.162
59.9792
59.9416
59.9209
59.8967
59.8557
59.8512
59.9092
59.9801
60.315
60.622
60.984
60.1137
60.853
60.600
60.533
60.379
59.9948
59.9574
59.9468
59.9231
59.8887
59.8788
59.9056
59.9452
59.9893
60.294
60.457
60.473
60.449
60.424
60.356
60.307
60.366
60.184
59.9703
59.9288
59.8951
59.8539
59.8207
59.8509
59.9221
59.9864
60.119
60.412
60.659
60.506
60.209
60.89
59.9978
59.9675
59.9185
59.8957
59.8808
59.8552
59.8341
59.8453
59.8881
59.9329
59.9779
60.4
60.82
60.150
60.219
60.214
60.163
60.209
60.145
59.9753
59.9399
59.9195
59.8859
59.8460
59.8580
59.9221
59.9938
60.331
60.698
60.1090
60.1075
60.747
60.582
60.515
60.283
59.9779
59.9489
59.9330
59.8987
59.8633
59.8616
59.8974
59.9349
59.9843
60.185
60.277
60.313
60.313
60.331
60.270
60.261
60.284
59.9932
59.9422
59.9030
59.8698
59.8233
59.8082
59.8583
59.9337
59.9875
60.103
60.461
60.568
60.331
60.37
59.9953
59.9821
59.9405
59.8988
59.8842
59.8679
59.8412
59.8276
59.8561
59.8983
59.9472
59.9825
60.14
60.70
60.100
60.198
60.191
60.155
60.229
60.29
59.9580
59.9277
59.9078
59.8760
59.8441
59.8792
59.9493
60.153
60.537
60.896
60.1227
60.1094
60.753
60.668
60.559
60.208
59.9729
59.9549
59.9381
59.9045
59.8806
59.8964
59.9358
59.9812
60.305
60.582
60.581
60.598
60.595
60.558
60.454
60.497
60.412
59.9985
59.9531
59.9205
59.8820
59.8380
59.8413
59.9046
59.9757
60.108
60.374
60.699
60.707
60.419
60.265
60.202
60.23
59.9556
59.9236
59.9105
59.8865
59.8582
59.8525
59.8847
59.9263
59.9762
60.73
60.182
60.249
60.346
60.370
60.326
60.365
60.460
60.135
59.9739
59.9533
59.9288
59.8869
59.8754
59.9268
60.13
60.594
60.923
60.1288
60.1473
60.1196
60.921
60.843
60.687
60.266
59.9878
59.9725
59.9482
59.9126
59.8944
59.9220
59.9610
60.93
60.525
60.700
60.671
60.668
60.641
60.569
60.482
60.549
60.333
59.9864
59.9455
59.9129
59.8705
59.8359
59.8620
59.9391
60.51
60.356
60.620
60.900
60.749
60.438
60.315
60.178
59.9889
59.9353
59.9132
59.8990
59.8750
59.8528
59.8687
59.9087
59.9541
59.9963
60.215
60.283
60.389
60.464
60.474
60.437
60.489
60.441
60.12
59.9648
59.9426
59.9111
59.8738
59.8849
59.9462
60.179
60.583
60.928
60.1295
60.1300
60.947
60.750
60.689
60.484
59.9959
59.9706
59.9593
59.9336
59.9026
59.9010
59.9380
59.9772
60.286
60.578
60.642
60.620
60.582
60.559
60.512
60.512
60.557
60.234
59.9795
59.9441
59.9132
59.8729
59.8562
59.9035
59.9839
60.352
60.578
60.855
60.1018
60.764
60.486
60.407
60.277
59.9885
59.9438
59.9265
59.9071
59.8788
59.8635
59.8914
59.9317
59.9760
60.132
60.292
60.353
60.422
60.502
60.542
60.567
60.678
60.525
60.94
59.9815
59.9601
59.9282
59.8951
59.9253
59.9964
60.645
60.991
60.1334
60.1635
60.1480
60.1148
60.1043
60.951
60.620
60.152
59.9974
59.9794
59.9456
59.9219
59.9391
59.9759
60.163
60.628
60.858
60.888
60.888
60.853
60.803
60.704
60.722
60.612
60.179
59.9737
59.9387
59.9057
59.8631
59.8692
59.9334
60.80
60.461
60.687
60.970
60.958
60.626
60.457
60.383
60.222
59.9747
59.9469
59.9354
59.9155
59.8859
59.8815
59.9179
59.9567
60.22
60.347
60.443
60.524
60.572
60.605
60.599
60.591
60.630
60.303
59.9909
59.9663
59.9448
59.9032
59.8917
59.9435
60.196
60.741
60.1051
60.1389
60.1540
60.1249
60.967
60.878
60.746
60.329
60.0
59.9875
59.9680
59.9328
59.9223
59.9519
59.9851
60.289
60.665
60.763
60.738
60.712
60.683
60.598
60.568
60.615
60.444
59.9971
59.9553
59.9252
59.8889
59.8590
59.8928
59.9635
60.268
60.516
60.755
60.986
60.804
60.479
60.351
60.273
59.9968
59.9524
59.9334
59.9195
59.8973
59.8746
59.8898
59.9283
59.9693
60.113
60.340
60.417
60.452
60.523
60.513
60.510
60.582
60.591
60.218
59.9885
59.9690
59.9373
59.8955
59.9076
59.9734
60.449
60.851
60.1187
60.1544
60.1527
60.1178
60.1030
60.940
60.727
60.270
60.30
59.9896
59.9618
59.9314
59.9330
59.9658
60.52
60.489
60.814
60.894
60.893
60.874
60.878
60.824
60.826
60.885
60.542
60.78
59.9690
59.9388
59.8930
59.8777
59.9258
60.7
60.492
60.699
60.969
60.1121
60.896
60.678
60.645
60.523
60.151
59.9745
59.9625
59.9465
59.9199
59.9081
59.9337
59.9726
60.196
60.519
60.655
60.686
60.732
60.762
60.762
60.752
60.882
60.701
60.303
60.15
59.9820
59.9485
59.9211
59.9566
60.294
60.933
60.1212
60.1532
60.1783
60.1597
60.1251
60.1162
60.1036
60.720
60.262
60.111
59.9947
59.9591
59.9360
59.9531
59.9873
60.273
60.713
60.903
60.909
60.869
60.834
60.813
60.774
60.844
60.771
60.375
59.9904
59.9565
59.9229
59.8799
59.8865
59.9495
60.188
60.544
60.780
60.1083
60.1025
60.692
60.508
60.411
60.176
59.9690
59.9422
59.9293
59.9092
59.8815
59.8816
59.9161
59.9566
59.9975
60.267
60.333
60.401
60.450
60.463
60.463
60.462
60.519
60.147
59.9735
59.9491
59.9231
59.8824
59.8727
59.9277
60.5
60.499
60.796
60.1166
60.1307
60.1012
60.754
60.707
60.522
60.70
59.9721
59.9583
59.9393
59.9073
59.8952
59.9244
59.9624
60.84
60.469
60.617
60.594
60.558
60.507
60.447
60.409
60.490
60.251
59.9805
59.9388
59.9112
59.8760
59.8461
59.8775
59.9512
60.120
60.354
60.601
60.838
60.650
60.307
60.197
60.88
59.9772
59.9302
59.9132
59.9008
59.8772
59.8593
59.8766
59.9181
59.9617
60.9
60.216
60.254
60.300
60.326
60.333
60.306
60.406
60.362
59.9987
59.9708
59.9531
59.9259
59.8882
59.9032
59.9663
60.359
60.714
60.1024
60.1360
60.1294
60.921
60.736
60.666
60.479
59.9987
59.9762
59.9671
59.9430
59.9171
59.9174
59.9542
59.9897
60.351
60.634
60.628
60.592
60.547
60.508
60.465
60.491
60.553
60.253
59.9843
59.9514
59.9216
59.8791
59.8633
59.9131
59.9852
60.299
60.487
60.751
60.879
60.568
60.336
60.252
60.114
59.9708
59.9297
59.9196
59.9021
59.8730
59.8602
59.8910
59.9329
59.9766
60.106
60.225
60.227
60.252
60.242
60.235
60.221
60.335
60.165
59.9755
59.9488
59.9316
59.8963
59.8700
59.9070
59.9773
60.380
60.682
60.1037
60.1302
60.1100
60.745
60.631
60.530
60.175
59.9722
59.9601
59.9452
59.9113
59.8908
59.9065
59.9473
59.9896
60.363
60.602
60.551
60.511
60.481
60.447
60.386
60.465
60.382
59.9973
59.9518
59.9183
59.8848
59.8452
59.8555
59.9207
59.9932
60.290
60.551
60.837
60.796
60.431
60.252
60.156
59.9987
59.9502
59.9231
59.9140
59.8906
59.8624
59.8605
59.8956
59.9375
59.9858
60.179
60.308
60.399
60.453
60.531
60.542
60.602
60.736
60.483
60.192
60.63
59.9930
59.9608
59.9650
60.345
60.1205
60.1868
60.2306
60.2812
60.3042
60.2829
60.2727
60.2792
60.2795
60.2494
60.2359
60.2456
60.2428
60.2333
60.2458
60.2946
60.3572
60.4307
60.4948
60.5295
60.5553
60.5810
60.6055
60.6271
60.6543
60.6910
60.6897
60.6767
60.6727
60.6719
60.6605
60.6806
60.7668
60.8835
60.9698
61.361
61.1064
61.1529
61.1605
61.1755
61.2068
61.2315
61.2295
61.2454
61.2775
61.3005
61.3191
61.3715
61.4502
61.5465
61.6475
61.7204
61.7786
61.8369
61.8923
61.9454
61.9940
62.589
62.1029
62.1195
62.1459
62.1811
62.1959
62.2236
62.3275
62.4610
62.5812
62.6755
62.7776
62.8522
62.8821
62.9221
62.9770
63.273
63.458
63.953
63.1495
63.1883
63.2306
63.3170
63.4292
63.5479
63.6741
63.7619
63.8339
63.9091
63.9822
64.463
64.1228
64.2073
64.2502
64.2911
64.3410
64.3822
64.4226
64.5308
64.6943
64.8426
64.9603
65.820
65.1785
65.2280
65.2931
65.3712
65.4395
65.4815
65.5585
65.6394
65.6972
65.7670
65.8889
66.270
66.1756
66.3002
66.3985
66.4977
66.5975
66.6869
66.7843
66.8953
66.9659
67.347
67.1178
67.1827
67.2449
67.3942
67.5907
67.7565
67.9010
68.463
68.1451
68.2090
68.3006
68.4003
68.4714
68.5635
68.6740
68.7537
68.8380
68.9714
69.1317
69.3021
69.4556
69.5780
69.6925
69.8046
69.9090
70.312
70.1615
70.2516
70.3341
70.4260
70.4960
70.6063
70.8065
71.176
71.1785
71.3404
71.4799
71.5677
71.6794
71.8016
71.8995
72.51
72.1348
72.2343
72.3380
72.4957
72.6794
72.8661
73.212
73.1579
73.2968
73.4267
73.5582
73.7193
73.8337
73.9435
74.628
74.1470
74.2591
74.4716
74.6989
74.8903
75.838
75.2286
75.3324
75.4708
75.6115
75.7166
75.8615
75.9901
76.944
76.2465
76.4425
76.6520
76.8403
76.9977
77.1477
77.2940
77.4471
77.6316
77.7672
77.8880
78.81
78.990
78.2528
78.5026
78.7314
78.9252
79.1174
79.2420
79.3851
79.5552
79.6853
79.8359
79.9920
80.1162
80.2730
80.4857
80.7075
80.8976
81.681
81.2323
81.3889
81.5694
81.7614
81.9004
82.491
82.1652
82.2821
82.5291
82.7899
83.126
83.2343
83.3810
83.5241
83.7097
83.8588
84.325
84.1940
84.3230
84.5116
84.7513
84.9924
85.1911
85.3706
85.5446
85.7274
85.9572
86.1257
86.2746
86.4094
86.5226
86.7677
87.555
87.2832
87.5128
87.6736
87.8394
88.456
88.2029
88.3991
88.5601
88.7099
88.9369
89.1884
89.4080
89.6057
89.7982
89.9824
90.2152
90.4078
90.5796
90.7385
90.8559
91.1065
91.4069
91.6594
91.9063
92.590
92.2443
92.4548
92.6330
92.8439
92.9930
93.1893
93.4568
93.7283
93.9489
94.1536
94.3515
94.5892
94.8198
94.9972
95.1581
95.2793
95.5491
95.8643
96.1199
96.3614
96.5244
96.7397
96.9418
97.1506
97.3465
97.5110
97.7588
98.378
98.2725
98.4944
98.6929
98.9135
99.1654
99.3550
99.5444
99.6714
99.9395
100.2622
100.5414
100.7875
100.9528
101.1905
101.3977
101.6421
101.8275
102.229
102.3121
102.6040
102.8404
103.584
103.2752
103.5636
103.7839
103.9833
104.1219
104.3726
104.7200
104.9989
105.2534
105.4308
105.6814
105.8906
106.1349
106.3216
106.5450
106.8524
107.1136
107.3484
107.5615
107.8062
108.672
108.2825
108.4632
108.6390
108.9958
109.3027
109.5952
109.7759
110.186
110.2544
110.5235
110.7200
110.9593
111.2865
111.5753
111.8228
112.455
112.3386
112.6034
112.8311
112.9886
113.2523
113.6201
113.9242
114.1661
114.3762
114.6412
114.8887
115.1238
115.3249
115.6386
115.9337
116.1834
116.4088
116.6815
116.9468
117.1819
117.3378
117.6054
117.9717
118.2975
118.5259
118.7547
119.240
119.3143
119.5302
119.7817
120.1298
120.4287
120.6859
120.9296
121.2739
121.5303
121.7388
121.9447
122.3462
122.6716
122.9364
123.1527
123.4292
123.7028
123.9297
124.1700
124.5085
124.7818
125.364
125.2713
125.5862
125.8323
126.115
126.2489
126.6323
126.9701
127.1901
127.4467
127.7244
128.311
128.2405
128.5716
128.9180
129.1977
129.4427
129.7968
130.912
130.3298
130.5358
130.9592
131.3095
131.5684
131.8211
132.1059
132.4111
132.6178
132.9344
133.2529
133.5143
133.7464
134.716
134.3346
134.5363
134.7753
135.1618
135.5052
135.7069
135.9895
136.2891
136.5682
136.8174
137.2037
137.5177
137.7799
138.1031
138.4386
138.7100
138.9125
139.3547
139.7258
139.9818
140.2699
140.5705
140.8734
141.1063
141.4700
141.7586
142.94
142.3023
142.6030
142.8561
143.374
143.4436
143.7969
144.54
144.2902
144.6092
144.8712
145.1451
145.5283
145.8167
146.623
146.4414
146.7499
146.9339
147.2980
147.6903
147.9949
148.2424
148.5579
148.8829
149.1089
149.4624
149.7348
149.9653
150.2743
150.5596
150.7607
151.145
151.3809
151.6835
151.8723
152.1753
152.5044
152.7222
153.833
153.3653
153.5865
153.9256
154.2350
154.4296
154.7606
155.1166
155.3712
155.6066
155.9068
156.1913
156.4173
156.7063
156.9066
157.712
157.3577
157.6123
157.7113
158.347
158.2723
158.3961
158.6308
158.9117
159.634
159.2706
159.3381
159.3147
159.5047
159.8585
159.9252
160.1196
160.4145
160.6529
160.8307
161.1340
161.2637
161.3955
161.5087
161.5850
161.6062
161.7003
161.6982
161.6402
161.5701
161.6824
161.4493
161.6444
161.5471
161.6379
161.4463
161.6397
161.3872
161.6368
161.4373
161.5359
161.3801
161.5060
161.2253
161.3859
161.2629
161.3598
161.2200
161.1987
161.1073
161.1432
161.1315
161.1316
161.801
161.293
161.721
160.9153
161.583
161.166
161.1249
160.9349
161.499
160.8388
161.1143
160.9727
161.1224
160.9767
161.1864
160.8829
161.1397
161.3
161.2205
161.21
161.1390
160.9131
161.319
160.8764
160.9468
160.8102
160.8338
160.7570
160.7078
160.7649
160.7865
160.8192
160.6993
160.7615
160.6104
160.8388
160.7543
160.8704
160.7758
160.9806
160.7532
161.4
160.8679
161.620
160.8176
160.9385
160.6893
160.9082
160.6954
160.8192
160.6067
160.6829
160.4837
160.5218
160.4926
160.6062
160.5681
160.5254
160.5362
160.4664
160.6245
160.5667
160.6333
160.5761
160.7659
160.5321
160.7495
160.5741
160.7740
160.5574
160.7052
160.4406
160.7096
160.4980
160.6387
160.4128
160.5476
160.2937
160.3843
160.3021
160.4455
160.3489
160.3544
160.3187
160.2842
160.3998
160.3769
160.4197
160.3858
160.5185
160.3250
160.5366
160.4480
160.6164
160.4156
160.5197
160.2661
160.5336
160.3263
160.4692
160.2468
160.3957
160.1468
160.2846
160.1821
160.3098
160.1815
160.1770
160.997
160.1064
160.1963
160.1773
160.2007
160.1640
160.2917
160.1321
160.3336
160.2721
160.4266
160.2063
160.3499
160.837
160.3432
160.1417
160.2645
160.677
160.2368
159.9460
160.851
159.9613
160.1266
159.9779
160.363
159.9171
159.9273
160.4
159.9848
160.107
159.9666
160.642
159.9014
160.1144
160.651
160.2187
160.196
160.1900
159.9389
160.1935
159.9779
160.930
159.8622
160.449
159.7398
159.8787
159.7713
159.9333
159.8022
159.7967
159.6923
159.7020
159.8012
159.7943
159.8287
159.8046
159.9191
159.7584
159.9730
159.8919
160.534
159.8614
160.316
159.7808
160.294
159.7894
159.9224
159.6927
159.8284
159.5619
159.6728
159.5766
159.7236
159.6002
159.5596
159.5405
159.5076
159.6338
159.5996
159.6575
159.5718
159.7493
159.5618
159.7970
159.7118
159.8894
159.6718
159.8353
159.5758
159.8266
159.6008
159.7220
159.5114
159.6006
159.3890
159.4560
159.3972
159.5040
159.4523
159.3960
159.4166
159.3425
159.5155
159.4415
159.5260
159.4330
159.5932
159.3869
159.6509
159.5281
159.7312
159.5059
159.6563
159.4028
159.6237
159.4125
159.5287
159.3315
159.3834
159.2447
159.2549
159.2723
159.3247
159.3369
159.2496
159.3391
159.1771
159.3991
159.3101
159.4111
159.2820
159.4900
159.2311
159.5007
159.3760
159.5805
159.3566
159.4759
159.2322
159.3880
159.2278
159.2870
159.1490
159.1308
159.1023
159.161
159.1300
159.1267
159.2122
159.1096
159.2232
159.321
159.3008
159.1617
159.2916
159.1110
159.3375
159.485
159.2923
159.1599
159.3516
159.1350
159.1537
158.9851
159.475
159.294
159.342
159.106
158.9329
159.263
158.8680
159.479
158.9918
159.1414
158.9688
159.1448
158.9040
159.1894
159.219
159.1831
159.95
159.1802
158.9685
159.1081
158.9993
159.1173
159.9
158.9572
158.9040
158.8397
158.9564
158.8935
158.9170
158.8133
158.9733
158.7035
158.9364
158.8315
159.310
158.8036
158.9731
158.7079
158.9545
158.7885
158.9061
158.7811
158.9010
158.7664
158.7635
158.8117
158.8652
158.9029
158.7628
158.8242
158.6751
158.9005
158.7590
158.8588
158.6719
158.8928
158.5784
158.8016
158.6609
158.8670
158.6381
158.7111
158.5365
158.6393
158.5971
158.6640
158.6292
158.6206
158.6912
158.5612
158.7486
158.7199
158.8659
158.6941
158.8379
158.5966
158.8550
158.6528
158.7746
158.5464
158.6939
158.4183
158.5422
158.4392
158.5745
158.4786
158.4328
158.4344
158.3718
158.5360
158.4980
158.5860
158.5109
158.6929
158.4688
158.7247
158.5957
158.7982
158.5920
158.7122
158.4329
158.6218
158.4365
158.5260
158.3773
158.3929
158.3299
158.2371
158.3304
158.3569
158.4390
158.3313
158.4733
158.2885
158.5485
158.4052
158.5419
158.3821
158.5841
158.3113
158.5368
158.3867
158.5758
158.4020
158.4306
158.2931
158.2965
158.3274
158.2971
158.3053
158.2017
158.3383
158.939
158.3114
158.2467
158.4375
158.2113
158.3728
158.1433
158.4155
158.2387
158.3788
158.2033
158.3405
158.2106
158.2619
158.2665
158.2456
158.2801
158.1825
158.2402
158.803
158.2979
158.1547
158.2763
158.1032
158.3170
158.301
158.2490
158.889
158.2879
158.722
158.1573
157.9727
158.435
158.349
158.611
158.607
158.326
158.1473
158.4
158.2128
158.1553
158.3292
158.1227
158.2568
158.141
158.2663
158.527
158.1907
157.9508
158.830
157.8457
157.8791
157.8630
157.9425
157.9401
157.8638
157.9227
157.8022
158.352
157.9421
158.721
157.9467
158.1571
157.8875
158.1379
157.9947
158.1994
157.9835
158.620
157.8360
157.9092
157.8503
157.8638
157.8275
157.7337
157.8305
157.6656
157.8607
157.8073
157.9660
157.7503
157.9122
157.6876
157.9684
157.7932
157.9487
157.7751
157.9222
157.7398
157.7962
157.7852
157.8624
157.8608
157.7567
157.8103
157.6368
157.8549
157.7239
157.8459
157.6775
157.8653
157.5678
157.7897
157.6298
157.8318
157.6157
157.7119
157.5472
157.6029
157.6221
157.6341
157.6461
157.6281
157.7237
157.5592
157.7965
157.7198
157.9018
157.6643
157.8046
157.5680
157.8342
157.6279
157.7516
157.5369
157.6125
157.4596
157.4641
157.5002
157.5442
157.5867
157.4743
157.5753
157.3926
157.6604
157.5237
157.6824
157.5264
157.7733
157.4709
157.6951
157.5356
157.7201
157.5300
157.5253
157.4174
157.4173
157.4804
157.4423
157.4689
157.3618
157.5260
157.2981
157.5247
157.4209
157.6187
157.4060
157.5772
157.2899
157.5018
157.3454
157.4478
157.3250
157.3699
157.3378
157.2978
157.4296
157.4209
157.5240
157.3598
157.4680
157.2551
157.5281
157.3529
157.5040
157.2754
157.4362
157.1748
157.3080
157.1937
157.3175
157.2386
157.1793
157.1952
157.1240
157.3181
157.2590
157.3600
157.2461
157.4601
157.2174
157.4822
157.3419
157.5482
157.3021
157.3894
157.1839
157.2771
157.1781
157.2056
157.1445
157.841
157.1648
157.23
157.1906
157.1390
157.3131
157.1411
157.3167
157.586
157.3303
157.1299
157.2666
157.978
157.2121
157.317
157.713
157.1210
157.1851
157.2268
157.1045
157.1964
157.85
157.2497
157.823
157.2178
157.215
157.2154
156.9203
157.933
156.9528
157.1238
156.9751
156.9962
156.9521
156.9170
157.425
156.9934
157.612
156.9784
157.1630
156.9522
157.2160
157.1006
157.3103
157.584
157.1599
156.9040
157.524
156.9044
156.9513
156.8692
156.8488
156.8826
156.7480
156.9212
156.8858
157.361
156.8866
157.500
156.7974
157.794
156.9022
157.667
156.8670
157.95
156.8227
156.8693
156.8739
156.9239
156.9539
156.8199
156.8943
156.7604
157.48
156.8605
156.9957
156.8060
157.79
156.7089
156.8921
156.7400
156.8980
156.7212
156.7415
156.6772
156.6475
156.7753
156.7303
156.8094
156.7438
156.9387
156.7269
156.9896
156.8674
157.771
156.8451
156.9562
156.7092
156.8526
156.7126
156.7587
156.6823
156.6219
156.6428
156.4744
156.6632
156.6195
156.7809
156.6021
156.8119
156.5754
156.8529
156.6566
156.8063
156.6303
156.7603
156.5938
156.6316
156.6643
156.7093
156.7562
156.6477
156.7398
156.5390
156.7854
156.6155
156.7599
156.5445
156.7030
156.4302
156.5863
156.4584
156.5845
156.4570
156.4616
156.4439
156.3537
156.5411
156.4812
156.5901
156.4884
156.7032
156.4711
156.7432
156.6093
156.8142
156.5799
156.6369
156.4251
156.5062
156.4608
156.4710
156.4607
156.3919
156.4988
156.3056
156.5184
156.4471
156.6383
156.4140
156.5767
156.3293
156.5713
156.4113
156.5315
156.3959
156.4644
156.3995
156.3406
156.4762
156.4798
156.5943
156.4138
156.5579
156.3204
156.5926
156.4010
156.5575
156.3405
156.4873
156.2457
156.3044
156.2477
156.3369
156.3266
156.2415
156.3351
156.1973
156.4512
156.3393
156.4728
156.3383
156.5715
156.2897
156.5208
156.3615
156.5403
156.3656
156.3829
156.3159
156.2695
156.3607
156.2851
156.3266
156.1987
156.3674
156.840
156.3319
156.1956
156.4096
156.1927
156.3356
156.1186
156.2367
156.1674
156.2131
156.1896
156.1632
156.2830
156.1341
156.3579
156.2809
156.4663
156.2825
156.4250
156.1636
156.3900
156.1761
156.2698
156.937
156.1155
156.248
155.9211
156.449
156.548
156.1736
156.0
156.1394
155.9285
156.2463
156.927
156.2803
156.1014
156.2697
156.672
156.1470
156.1079
156.1981
156.1955
156.998
156.1399
155.9767
156.2130
156.778
156.2194
156.331
156.2350
155.9392
156.996
155.9667
156.1160
155.9653
155.9254
155.9013
155.8618
156.341
155.9709
156.836
156.50
156.1982
155.9582
156.2274
156.698
156.2845
156.555
156.1317
155.9386
155.9885
155.9646
155.9492
155.9426
155.8419
155.9731
155.7634
155.9979
155.9060
156.1143
155.9019
156.597
155.8081
156.14
155.8651
155.9557
155.8684
155.9103
155.9160
155.8156
155.9942
155.9646
156.1242
155.9404
156.895
155.8419
156.918
155.8649
155.9667
155.7598
155.8577
155.7120
155.6744
155.7411
155.7689
155.8548
155.7471
155.8910
155.7061
155.9987
155.8370
156.13
155.8189
155.9692
155.7644
155.8740
155.8036
155.9056
155.8747
155.7544
155.8045
155.6758
155.9080
155.7715
155.8898
155.7272
155.9317
155.6290
155.8247
155.6825
155.8494
155.6947
155.6968
155.6387
155.5882
155.7556
155.7088
155.8150
155.7417
155.9568
155.6988
155.9514
155.7994
156.155
155.7740
155.8332
155.6466
155.6830
155.6752
155.6696
155.6841
155.5987
155.7407
155.5198
155.7583
155.6498
155.8547
155.6224
155.7681
155.5446
155.7206
155.5878
155.6400
155.5905
155.6188
155.6952
155.5504
155.7536
155.7082
155.8890
155.6983
155.8594
155.6178
155.8489
155.6282
155.7207
155.5350
155.5752
155.4770
155.3775
155.4981
155.5047
155.6272
155.4909
155.6561
155.4496
155.7526
155.5820
155.7461
155.5532
155.7229
155.4980
155.5450
155.5527
155.6065
155.6503
155.5440
155.6453
155.4444
155.7014
155.5500
155.7027
155.5096
155.6638
155.4170
155.5372
155.4118
155.5245
155.4575
155.3994
155.4613
155.3560
155.5847
155.4939
155.6394
155.5063
155.7315
155.4667
155.6930
155.5464
155.7175
155.5219
155.4831
155.4107
155.3543
155.4785
155.4305
155.5171
155.4066
155.5847
155.2941
155.5377
155.4028
155.6190
155.3872
155.4784
155.2810
155.3415
155.3688
155.4004
155.4411
155.3936
155.5625
155.3782
155.6397
155.5273
155.7388
155.4829
155.5830
155.3368
155.4993
155.3634
155.4196
155.3522
155.2902
155.3662
155.2098
155.4153
155.3446
155.5259
155.3181
155.4837
155.2230
155.4731
155.3194
155.4402
155.3166
155.3951
155.3594
155.3018
155.4490
155.4113
155.5568
155.3805
155.5143
155.2590
155.5302
155.3290
155.4673
155.2545
155.3306
155.1733
155.1497
155.2088
155.2338
155.3218
155.1905
155.3459
155.1575
155.4553
155.2906
155.4649
155.2895
155.4612
155.2327
155.3193
155.2638
155.3516
155.3570
155.2610
155.3296
155.1739
155.4205
155.2534
155.3821
155.1778
155.3574
155.671
155.2154
155.1036
155.2393
155.1539
155.1158
155.1249
155.23
155.2385
155.1670
155.3220
155.2091
155.4276
155.1703
155.4069
155.2530
155.4240
155.2409
155.2224
155.1316
155.551
155.1928
155.1372
155.2281
155.730
155.2661
154.9677
155.2167
155.803
155.3005
155.943
155.1794
155.107
155.447
155.1068
155.898
155.1434
155.811
155.2786
155.774
155.3462
155.2320
155.4452
155.2111
155.3127
155.838
155.1598
155.714
155.950
155.765
155.183
155.1181
154.9196
155.1439
155.407
155.2395
155.121
155.2022
154.9703
155.1604
155.144
155.877
155.231
155.202
155.857
154.9503
155.1638
155.1218
155.3014
155.978
155.2550
155.90
155.2407
155.375
155.1433
154.9835
154.9653
154.9199
154.8186
154.9684
154.9484
155.905
154.9294
155.1187
154.8877
155.1851
155.119
155.1767
155.140
155.1387
154.9731
154.9450
155.371
155.728
155.1788
155.613
155.1913
154.9565
155.2220
155.279
155.1892
154.9796
155.978
154.8728
154.8966
154.8905
154.9371
154.9776
154.8744
154.9809
154.8146
155.1088
154.9675
155.1506
154.9795
155.1640
154.9318
155.740
154.9877
155.1012
155.643
154.9574
155.224
154.8666
155.1026
154.9808
155.1307
154.9384
155.1404
154.8166
154.9800
154.8455
154.9858
154.8796
154.8699
154.8588
154.7829
155.49
154.9205
155.476
154.9319
155.1548
154.8987
155.1433
155.2
155.1768
154.9797
154.9904
154.8992
154.8384
154.9668
154.8992
154.9927
154.8765
155.520
154.7489
154.9892
154.8527
155.627
154.8336
154.8833
154.7055
154.7229
154.8211
154.8321
154.9170
154.8397
155.451
154.8312
155.1035
154.9617
155.1680
154.9364
155.469
154.8555
154.9203
154.8809
154.8583
154.8512
154.7639
154.8974
154.7076
154.9517
154.8418
155.522
154.8277
154.9394
154.7267
154.8761
154.7793
154.8492
154.8254
154.8070
154.8832
154.7245
154.9710
154.9144
155.1258
154.9190
155.670
154.7853
154.9710
154.8069
154.8698
154.7575
154.6988
154.7382
154.5900
154.7848
154.7480
154.9338
154.7295
154.8966
154.6725
154.9354
154.7552
154.8818
154.7536
154.8052
154.7850
154.7390
154.8915
154.8460
154.9849
154.8321
154.9981
154.7469
154.9932
154.7568
154.8765
154.6852
154.7445
154.6180
154.5605
154.6634
154.6605
154.7756
154.5978
154.7786
154.5415
154.8459
154.6706
154.8261
154.6595
154.7838
154.6112
154.6629
154.7177
154.7752
154.8589
154.7256
154.8635
154.6489
154.9228
154.7285
154.8788
154.6672
154.8027
154.5592
154.5951
154.5780
154.6410
154.6797
154.5665
154.6695
154.4871
154.7860
154.6555
154.8339
154.6631
154.8712
154.6472
154.7744
154.6804
154.7756
154.7528
154.6346
154.7067
154.5454
154.7905
154.6468
154.7964
154.6092
154.7888
154.5310
154.6801
154.5520
154.6605
154.5876
154.5289
154.5814
154.4660
154.7089
154.6037
154.7542
154.6187
154.8502
154.5559
154.7769
154.6465
154.7967
154.6526
154.5989
154.5803
154.4776
154.6611
154.5680
154.6874
154.5226
154.7306
154.4625
154.6908
154.5348
154.6994
154.5247
154.5236
154.4754
154.4337
154.6028
154.5426
154.6617
154.5947
154.8365
154.5867
154.8330
154.6741
154.8543
154.6390
154.6482
154.5049
154.4899
154.5812
154.5275
154.5908
154.4725
154.6593
154.3878
154.6425
154.4944
154.6928
154.4485
154.5209
154.3591
154.4207
154.4906
154.4850
154.5522
154.5207
154.7288
154.5139
154.7792
154.6429
154.8524
154.5967
154.6653
154.4448
154.5177
154.4999
154.4965
154.5083
154.4201
154.5755
154.3686
154.6205
154.5011
154.7168
154.4891
154.6403
154.4234
154.5431
154.4678
154.5075
154.5124
154.4739
154.6110
154.4307
154.6851
154.5873
154.8041
154.5883
154.7162
154.4636
154.6065
154.4624
154.5072
154.4454
154.3867
154.4569
154.2828
154.5069
154.4486
154.6557
154.4521
154.6121
154.3677
154.5716
154.4389
154.5222
154.4465
154.4764
154.5435
154.3981
154.6080
154.5670
154.7591
154.5490
154.6811
154.4039
154.6305
154.4464
154.5346
154.3938
154.3895
154.3880
154.2613
154.4359
154.4126
154.5901
154.4015
154.5837
154.3090
154.5792
154.3975
154.5169
154.3851
154.4672
154.4303
154.3728
154.5330
154.5106
154.6633
154.4774
154.6022
154.3778
154.6527
154.4329
154.5694
154.4037
154.4598
154.3346
154.2515
154.3694
154.3734
154.5089
154.3569
154.5256
154.2910
154.5881
154.4144
154.5809
154.4017
154.5365
154.3730
154.3559
154.4437
154.4717
154.5796
154.4338
154.5928
154.3363
154.6098
154.4138
154.5633
154.3390
154.4237
154.2322
154.2406
154.2784
154.3143
154.4024
154.2762
154.4472
154.2485
154.5499
154.3782
154.5323
154.3535
154.5260
154.3405
154.4124
154.4036
154.4419
154.4894
154.4028
154.4973
154.2894
154.5553
154.3805
154.5406
154.3389
154.4693
154.1984
154.2387
154.1961
154.2929
154.3169
154.2351
154.3566
154.1681
154.4589
154.3327
154.5168
154.3348
154.5595
154.3027
154.4047
154.3260
154.4226
154.4153
154.3153
154.3831
154.2311
154.4775
154.3149
154.4598
154.2594
154.4315
154.1667
154.2847
154.1683
154.2722
154.2352
154.1976
154.2731
154.1224
154.3817
154.2727
154.4384
154.2962
154.5252
154.2419
154.4127
154.2894
154.4154
154.3395
154.2530
154.2759
154.1412
154.3569
154.2232
154.3529
154.1930
154.4145
154.1391
154.2946
154.1458
154.2675
154.1625
154.1162
154.1408
154.456
154.2780
154.1966
154.3477
154.2180
154.4608
154.2021
154.4091
154.2674
154.3962
154.2502
154.1941
154.1671
154.531
154.2499
154.1434
154.2645
154.1133
154.3509
154.422
154.2448
154.909
154.2532
154.980
154.617
154.401
153.9630
154.1771
154.1283
154.2745
154.1487
154.3786
154.1378
154.3862
154.2329
154.3965
154.2224
154.1778
154.1361
154.795
154.2294
154.1364
154.2483
154.1010
154.3011
154.64
154.2318
154.798
154.2629
154.816
154.1275
154.508
153.9929
154.1508
154.1056
154.2270
154.1239
154.3292
154.933
154.3584
154.1934
154.3688
154.1879
154.1838
154.868
154.741
154.1814
154.1196
154.2057
154.548
154.2635
153.9790
154.2192
154.788
154.2727
154.561
154.829
153.9771
153.9892
154.1106
154.616
154.1588
154.656
154.2988
154.689
154.3399
154.1885
154.3936
154.1775
154.1982
154.289
154.248
154.1042
154.718
154.1522
154.78
154.2173
153.9596
154.2151
154.604
154.2544
154.289
154.911
153.9555
154.101
154.893
154.718
154.1512
154.506
154.2566
154.105
154.2914
154.1549
154.3706
154.1573
154.2167
154.230
154.544
154.761
154.321
154.771
153.9888
154.1683
153.9067
154.1569
154.248
154.2379
153.9913
154.905
153.9203
153.9755
154.154
154.203
154.883
154.145
154.2144
154.191
154.2935
154.1497
154.3531
154.1359
154.2243
154.24
154.449
154.337
154.240
154.503
153.9386
154.1122
153.8575
154.1084
153.9931
154.2098
153.9882
154.1159
153.9054
153.9880
153.9849
153.9883
154.332
153.9819
154.1655
153.9435
154.2145
154.1002
154.3178
154.811
154.1759
153.9483
154.185
153.9718
153.9569
153.9625
153.8927
154.471
153.7962
154.478
153.9378
154.1559
153.9260
154.811
153.8497
153.9477
153.9133
153.9333
153.9642
153.8992
154.436
153.8652
154.1423
154.281
154.2485
154.229
154.1323
153.9000
153.9875
153.9206
153.9338
153.9371
153.8563
153.9942
153.7830
154.303
153.9151
154.1184
153.8937
154.609
153.8014
153.9055
153.8609
153.9120
153.9363
153.8908
154.342
153.8619
154.1312
154.252
154.2395
153.9961
154.984
153.8771
153.9811
153.8909
153.9135
153.9059
153.7800
153.9222
153.7031
153.9564
153.8745
154.1014
153.8996
154.424
153.8269
153.9600
153.8768
153.9152
153.9221
153.8893
154.526
153.8513
154.1086
154.147
154.2298
154.64
154.1242
153.8820
153.9863
153.8739
153.8905
153.8742
153.8277
153.9327
153.7140
153.9556
153.8623
154.763
153.8489
154.52
153.7620
153.9027
153.8191
153.8685
153.8668
153.8299
153.9651
153.7944
154.636
153.9776
154.1971
153.9650
154.1064
153.8297
153.9558
153.8355
153.8687
153.8390
153.7476
153.8815
153.6917
153.9404
153.8590
154.796
153.8785
154.224
153.7766
153.9220
153.8293
153.8743
153.8622
153.8390
153.9725
153.8288
154.834
153.9844
154.1894
153.9795
154.1080
153.8334
153.9641
153.8332
153.8487
153.8110
153.7333
153.8653
153.6817
153.9185
153.8259
154.347
153.8386
154.39
153.7356
153.8849
153.7891
153.8374
153.8252
153.8035
153.9152
153.7740
154.318
153.9324
154.1465
153.9352
154.780
153.8008
153.9337
153.8038
153.8377
153.8066
153.7265
153.8480
153.6757
153.9165
153.8169
154.308
153.8042
153.9744
153.7162
153.8739
153.7751
153.8374
153.8267
153.7706
153.9364
153.8072
154.544
153.9427
154.1495
153.9530
154.948
153.8069
153.9308
153.7987
153.8368
153.7998
153.6942
153.7998
153.6265
153.8704
153.7666
153.9922
153.7757
153.9350
153.6595
153.8279
153.7360
153.8056
153.7975
153.7480
153.8949
153.7538
154.92
153.9048
154.1194
153.9061
154.139
153.7448
153.8867
153.7577
153.7923
153.7529
153.6911
153.8023
153.6102
153.8521
153.7592
153.9756
153.7544
153.9293
153.6797
153.8376
153.7323
153.7834
153.7722
153.7451
153.8488
153.6946
153.9566
153.8628
154.825
153.8719
154.366
153.7444
153.8781
153.7547
153.7852
153.7510
153.6740
153.7940
153.5874
153.8300
153.7468
153.9687
153.7633
153.9214
153.6752
153.8305
153.7239
153.7699
153.7610
153.7423
153.8814
153.7077
153.9627
153.8659
154.873
153.8676
154.111
153.7239
153.8476
153.7260
153.7515
153.7145
153.6160
153.7417
153.5412
153.7919
153.7184
153.9416
153.7248
153.8929
153.6514
153.8060
153.7107
153.7548
153.7450
153.7164
153.8588
153.6881
153.9527
153.8661
154.856
153.8672
153.9698
153.7127
153.8397
153.7215
153.7453
153.7186
153.6435
153.7624
153.5704
153.8189
153.7416
153.9591
153.7342
153.8830
153.6555
153.7918
153.7005
153.7393
153.7475
153.7295
153.8668
153.6804
153.9380
153.8559
154.767
153.8258
153.9456
153.7201
153.8272
153.7179
153.7370
153.7259
153.6415
153.7367
153.5241
153.7822
153.7042
153.9289
153.6992
153.8510
153.6406
153.7644
153.6915
153.7365
153.7533
153.7117
153.8223
153.6265
153.9056
153.8296
154.538
153.8228
153.9473
153.7190
153.8278
153.7344
153.7604
153.7508
153.6534
153.7981
153.5815
153.8340
153.7320
153.9312
153.7163
153.8136
153.5899
153.7164
153.6720
153.7298
153.7529
153.7135
153.8578
153.6876
153.9553
153.8489
154.673
153.8421
153.9354
153.7240
153.8211
153.7379
153.7578
153.7552
153.6316
153.7630
153.5568
153.8135
153.7026
153.9180
153.6878
153.8176
153.6103
153.7239
153.6794
153.7265
153.7516
153.6822
153.8586
153.6968
153.9624
153.8365
154.562
153.8233
153.9539
153.7041
153.7814
153.7135
153.7138
153.7157
153.6006
153.7562
153.5461
153.8076
153.6917
153.9095
153.6879
153.8225
153.5961
153.6919
153.6723
153.6890
153.7171
153.6789
153.8483
153.6812
153.9564
153.8370
154.502
153.8006
153.8886
153.6576
153.7323
153.6900
153.6787
153.6921
153.5718
153.7308
153.5008
153.7705
153.6712
153.8992
153.6891
153.7911
153.5821
153.6628
153.6622
153.6687
153.7176
153.6890
153.8760
153.6616
153.9305
153.8134
154.286
153.7707
153.8531
153.6556
153.7183
153.6934
153.6819
153.7109
153.6029
153.7799
153.5391
153.7946
153.6705
153.8779
153.6656
153.7606
153.5664
153.6433
153.6620
153.6790
153.7371
153.7118
153.9071
153.6768
153.9398
153.8084
154.12
153.7735
153.8386
153.6386
153.6981
153.6948
153.6790
153.7141
153.6201
153.7983
153.5682
153.8190
153.6719
153.8749
153.6427
153.7013
153.5098
153.5713
153.6222
153.6318
153.6971
153.6454
153.8184
153.6338
153.9148
153.7736
153.9891
153.7783
153.8465
153.6231
153.6496
153.6734
153.6397
153.6753
153.5622
153.7339
153.4547
153.7209
153.6074
153.8368
153.5950
153.7133
153.5235
153.5754
153.6440
153.6229
153.7060
153.6663
153.8485
153.6181
153.8987
153.7678
153.9747
153.7172
153.7603
153.5763
153.6070
153.6580
153.6310
153.6955
153.5760
153.7506
153.4989
153.7591
153.6188
153.8021
153.6026
153.6705
153.4860
153.5009
153.6098
153.6124
153.7139
153.6479
153.8521
153.6157
153.8938
153.7411
153.9468
153.7322
153.7808
153.5975
153.5913
153.6688
153.6288
153.7026
153.5674
153.7614
153.4889
153.7402
153.5955
153.7994
153.5949
153.6244
153.4846
153.4850
153.6116
153.5755
153.6755
153.5976
153.8320
153.5670
153.8435
153.7112
153.9089
153.7174
153.7076
153.5531
153.5396
153.6478
153.5954
153.6877
153.5676
153.7673
153.4986
153.7333
153.5782
153.7469
153.5661
153.5971
153.5067
153.4929
153.6391
153.6025
153.7158
153.6051
153.8312
153.5864
153.8412
153.6741
153.8582
153.6696
153.6601
153.5438
153.4758
153.6188
153.5508
153.6237
153.5008
153.7201
153.4309
153.6634
153.5226
153.7058
153.5141
153.5141
153.4620
153.4315
153.6139
153.5478
153.6769
153.5684
153.7888
153.4862
153.7459
153.6157
153.7984
153.6167
153.5653
153.5083
153.4607
153.6287
153.5568
153.6785
153.5132
153.7166
153.4472
153.6586
153.4918
153.6577
153.5112
153.4732
153.4591
153.3846
153.5997
153.5331
153.6640
153.5410
153.7565
153.5224
153.7588
153.6105
153.7641
153.6192
153.5532
153.5583
153.4729
153.6629
153.5528
153.6815
153.4985
153.7258
153.4096
153.5989
153.4595
153.5793
153.4655
153.4182
153.4334
153.3464
153.5884
153.5198
153.6840
153.5451
153.7835
153.5132
153.7128
153.5727
153.6967
153.5919
153.5160
153.5240
153.3944
153.6235
153.5097
153.6421
153.4446
153.6503
153.3551
153.5254
153.4033
153.5331
153.4647
153.3904
153.4366
153.3216
153.5975
153.5043
153.6807
153.5208
153.7754
153.4934
153.6622
153.5440
153.6492
153.5980
153.5171
153.5600
153.4250
153.6660
153.5345
153.6795
153.5000
153.6825
153.4032
153.5020
153.4014
153.5023
153.4726
153.3681
153.4495
153.3027
153.5924
153.4632
153.6461
153.5114
153.7207
153.4156
153.5478
153.4686
153.5812
153.5803
153.4582
153.5344
153.3810
153.6551
153.5128
153.6765
153.4658
153.6339
153.3749
153.4466
153.3729
153.4537
153.4771
153.3720
153.4857
153.3111
153.6118
153.4656
153.6393
153.4749
153.6692
153.4392
153.5241
153.4869
153.5729
153.6125
153.4834
153.5913
153.4312
153.7041
153.5169
153.6740
153.4580
153.5936
153.3691
153.3813
153.3690
153.4064
153.4709
153.3469
153.5087
153.3010
153.6081
153.4453
153.6052
153.4330
153.5951
153.3955
153.4451
153.4711
153.5305
153.6074
153.4347
153.5765
153.3754
153.6645
153.4686
153.6316
153.3948
153.4988
153.2714
153.2729
153.3330
153.3681
153.4730
153.3528
153.5358
153.3261
153.6328
153.4536
153.5769
153.4160
153.5380
153.3886
153.4004
153.4873
153.5222
153.6374
153.4736
153.6433
153.4314
153.7109
153.4956
153.6278
153.4148
153.4752
153.3140
153.2626
153.3677
153.3699
153.4983
153.3604
153.5411
153.2984
153.6036
153.4311
153.5667
153.3957
153.4949
153.4057
153.3742
153.5081
153.5111
153.6590
153.4610
153.6191
153.4010
153.6705
153.4530
153.5784
153.3949
153.4490
153.3562
153.2510
153.3977
153.3729
153.5332
153.3706
153.5535
153.3054
153.5859
153.4158
153.5303
153.3846
153.4156
153.3940
153.3318
153.5097
153.4983
153.6733
153.4872
153.6524
153.4094
153.6511
153.4380
153.5324
153.3789
153.3782
153.3597
153.2148
153.3984
153.3609
153.5385
153.3777
153.5976
153.3389
153.5814
153.4135
153.4982
153.3928
153.4021
153.4307
153.3384
153.5534
153.5032
153.6958
153.4852
153.6267
153.3778
153.5950
153.4089
153.4752
153.3653
153.3350
153.3899
153.2411
153.4495
153.3828
153.5781
153.3835
153.5736
153.2856
153.4959
153.3610
153.4487
153.3991
153.3887
153.5021
153.3663
153.6040
153.5295
153.7301
153.5221
153.6439
153.3799
153.5458
153.3865
153.4330
153.3765
153.3072
153.4234
153.2287
153.4593
153.3739
153.5742
153.3685
153.5479
153.2831
153.4469
153.3548
153.4188
153.4096
153.4059
153.5313
153.3574
153.6084
153.5181
153.7312
153.5056
153.6124
153.3849
153.4983
153.3846
153.4054
153.3971
153.3510
153.4778
153.2320
153.4762
153.3646
153.5731
153.3561
153.4972
153.2863
153.3907
153.3561
153.3799
153.4132
153.3878
153.5569
153.3558
153.6180
153.5063
153.7298
153.5051
153.6087
153.3679
153.4201
153.3876
153.3725
153.4017
153.2790
153.4720
153.2364
153.4878
153.3476
153.5650
153.3433
153.4465
153.2365
153.2774
153.3249
153.3297
153.4016
153.3433
153.5585
153.3349
153.6100
153.4821
153.7026
153.4710
153.5258
153.3465
153.3602
153.4055
153.3730
153.4382
153.3353
153.5286
153.2700
153.5096
153.3470
153.5511
153.3285
153.3876
153.2536
153.2606
153.3687
153.3335
153.4109
153.3556
153.5926
153.3120
153.5850
153.4559
153.6602
153.4498
153.4523
153.3297
153.3273
153.4409
153.3822
153.4758
153.3116
153.5265
153.2592
153.5046
153.3322
153.5126
153.3187
153.3347
153.2764
153.2269
153.4048
153.3450
153.4685
153.4011
153.6494
153.3864
153.6354
153.4865
153.6464
153.4600
153.4188
153.3636
153.2931
153.4657
153.3783
153.4952
153.3233
153.5148
153.2681
153.4798
153.3117
153.4569
153.3057
153.2787
153.2874
153.2096
153.4315
153.3397
153.4902
153.3652
153.6227
153.3294
153.5479
153.4153
153.5462
153.4189
153.3634
153.3667
153.2777
153.4920
153.3763
153.5066
153.3420
153.5554
153.2551
153.4095
153.2824
153.3928
153.3107
153.2331
153.2648
153.1617
153.4343
153.3376
153.5099
153.3749
153.6245
153.3525
153.5168
153.3949
153.4929
153.4463
153.3593
153.4193
153.2605
153.5093
153.3659
153.5056
153.3107
153.4951
153.2198
153.3416
153.2518
153.3549
153.3436
153.2615
153.3561
153.2231
153.5119
153.3833
153.5557
153.3919
153.5719
153.3313
153.4309
153.3559
153.4361
153.4539
153.3295
153.4256
153.2381
153.5111
153.3422
153.5014
153.2961
153.4873
153.2283
153.2749
153.2421
153.3094
153.3551
153.2575
153.3871
153.1925
153.4974
153.3587
153.5347
153.3612
153.5290
153.3233
153.3656
153.3692
153.4111
153.4782
153.3421
153.4673
153.2430
153.5276
153.3334
153.4975
153.2906
153.4183
153.1814
153.1758
153.2295
153.2546
153.3547
153.2426
153.3969
153.1603
153.4729
153.3029
153.4529
153.2962
153.4253
153.2897
153.2941
153.3825
153.4094
153.5246
153.3321
153.4555
153.2351
153.5243
153.3282
153.4759
153.2622
153.3226
153.2029
153.1469
153.2625
153.2615
153.4022
153.2386
153.4184
153.1890
153.4860
153.2982
153.4485
153.2889
153.3817
153.2934
153.2254
153.3839
153.3813
153.5291
153.3407
153.5127
153.2746
153.5294
153.3225
153.4052
153.2378
153.2173
153.1799
153.802
153.2629
153.2620
153.4439
153.2729
153.4442
153.2195
153.4792
153.3149
153.4228
153.2920
153.2905
153.2948
153.2085
153.4213
153.3769
153.5639
153.3679
153.5388
153.2525
153.4822
153.2872
153.3550
153.2443
153.2297
153.2638
153.1045
153.3169
153.2697
153.4548
153.2773
153.4447
153.1851
153.3960
153.2611
153.3456
153.2936
153.3098
153.3943
153.2542
153.4947
153.4219
153.6324
153.4057
153.5319
153.2825
153.4376
153.2864
153.3342
153.2823
153.2144
153.3331
153.1463
153.3814
153.2782
153.4895
153.3021
153.4664
153.1920
153.3350
153.2434
153.2838
153.2869
153.2442
153.4043
153.2156
153.4874
153.4011
153.6230
153.3776
153.4718
153.2520
153.3486
153.2828
153.2958
153.3087
153.1988
153.3530
153.1479
153.4028
153.2903
153.5057
153.2774
153.3811
153.1891
153.2667
153.2698
153.2760
153.3322
153.3126
153.4651
153.2316
153.5074
153.3771
153.6012
153.3777
153.4461
153.2411
153.2754
153.2993
153.2750
153.3008
153.2103
153.4016
153.1168
153.3819
153.2636
153.4855
153.2763
153.3485
153.2112
153.2424
153.3323
153.3168
153.4073
153.3420
153.5516
153.3049
153.5689
153.4108
153.6073
153.3911
153.4045
153.2372
153.2234
153.3291
153.2699
153.3636
153.2222
153.4415
153.1626
153.4037
153.2320
153.4147
153.2326
153.2370
153.1782
153.1368
153.3047
153.2468
153.3650
153.2869
153.5000
153.2255
153.4818
153.3039
153.4748
153.3051
153.2980
153.2507
153.1921
153.3621
153.2861
153.4108
153.2358
153.4455
153.1517
153.3535
153.2122
153.3679
153.2287
153.1986
153.1906
153.1231
153.3535
153.2675
153.4221
153.2992
153.5308
153.2523
153.4679
153.3226
153.4408
153.3358
153.3320
153.3394
153.1950
153.4126
153.2796
153.4137
153.2592
153.4615
153.1413
153.3016
153.1770
153.2910
153.2342
153.1524
153.2357
153.1141
153.3849
153.2839
153.4545
153.2954
153.5145
153.2600
153.3975
153.2907
153.3892
153.3596
153.2675
153.3419
153.1996
153.4618
153.3017
153.4531
153.2512
153.4343
153.1655
153.2255
153.1542
153.2217
153.2397
153.1411
153.2738
153.1119
153.4095
153.2520
153.4263
153.2484
153.4539
153.2157
153.2950
153.2651
153.3291
153.3745
153.2301
153.3486
153.1596
153.4455
153.2649
153.4075
153.1927
153.3480
153.1304
153.1468
153.1587
153.1642
153.2492
153.1273
153.3188
153.1430
153.4477
153.2742
153.4355
153.2359
153.3520
153.1883
153.2233
153.2888
153.2918
153.3984
153.2323
153.3662
153.1408
153.4285
153.2231
153.3652
153.1549
153.2259
153.899
153.578
153.1595
153.1522
153.2842
153.1411
153.3184
153.892
153.3851
153.1870
153.3227
153.1874
153.2460
153.1705
153.1047
153.2655
153.2693
153.4201
153.2696
153.4273
153.1610
153.4205
153.2173
153.2943
153.1408
153.1573
153.1002
152.9812
153.1587
153.1487
153.3262
153.1379
153.3288
153.753
153.3349
153.1857
153.2876
153.1652
153.1833
153.2078
153.1042
153.3241
153.2855
153.4773
153.2815
153.4440
153.2071
153.4158
153.2247
153.2679
153.1588
153.1039
153.1741
153.212
153.2353
153.1582
153.3586
153.1473
153.3094
153.621
153.2563
153.1223
153.1895
153.1580
153.1815
153.3097
153.1588
153.4011
153.2959
153.4923
153.2985
153.4382
153.1562
153.2846
153.1587
153.1788
153.1511
153.881
153.1992
152.9797
153.2369
153.1448
153.3589
153.1346
153.2757
153.669
153.1842
153.1509
153.1732
153.2023
153.1436
153.2999
153.987
153.3813
153.2819
153.5079
153.2863
153.3555
153.1272
153.1873
153.1874
153.1805
153.2244
153.1127
153.3026
153.419
153.2930
153.1645
153.3729
153.1551
153.2392
153.595
153.1010
153.1847
153.1654
153.2510
153.1701
153.3907
153.1458
153.4192
153.2621
153.4703
153.2487
153.2635
153.1340
153.1336
153.2238
153.1575
153.2496
153.1316
153.3208
153.545
153.3010
153.1366
153.3187
153.1305
153.1382
153.606
153.261
153.2038
153.1475
153.2720
153.2086
153.4307
153.1480
153.4072
153.2757
153.4546
153.2678
153.2266
153.1881
153.1247
153.3069
153.2195
153.3367
153.1592
153.3484
153.622
153.2740
153.1399
153.2949
153.1475
153.1230
153.1571
153.768
153.3076
153.2226
153.3721
153.2560
153.4637
153.1959
153.3838
153.2450
153.3610
153.2616
153.1854
153.2156
153.803
153.3100
153.1793
153.3283
153.1197
153.3195
153.375
153.1736
153.574
153.1611
153.1273
153.444
153.1306
152.9918
153.2806
153.1554
153.3381
153.1918
153.3911
153.1137
153.2522
153.1774
153.2779
153.2791
153.1762
153.2766
153.1042
153.3821
153.2183
153.3567
153.1682
153.3265
153.704
153.1252
153.906
153.1545
153.2004
153.1174
153.2560
153.764
153.3748
153.2215
153.3896
153.2103
153.3709
153.1721
153.2097
153.2293
153.2715
153.3387
153.2121
153.3225
153.1178
153.4020
153.2086
153.3610
153.1278
153.2528
153.547
153.545
153.1139
153.1237
153.2271
153.775
153.2595
153.558
153.3601
153.1776
153.3306
153.1734
153.2521
153.1130
153.1059
153.2215
153.2150
153.3487
153.2066
153.3634
153.1243
153.3954
153.1100
153.2560
153.822
153.1291
153.499
152.9580
153.1102
153.1011
153.2613
153.807
153.2922
153.587
153.3507
153.1632
153.2398
153.1278
153.1880
153.1905
153.1021
153.2933
153.2722
153.4515
153.2676
153.4210
153.1536
153.3749
153.1849
153.2497
153.1157
153.949
153.1418
153.187
153.2161
153.1369
153.3306
153.1340
153.3313
153.881
153.2954
153.1484
153.2152
153.1458
153.1627
153.2548
153.1327
153.3642
153.2827
153.4757
153.2669
153.3988
153.1376
153.2847
153.1342
153.1763
153.1210
153.635
153.1670
153.4
153.2391
153.1380
153.3520
153.1242
153.2990
153.597
153.1958
153.1080
153.1448
153.1584
153.1242
153.2922
153.1094
153.3754
153.2593
153.4686
153.2486
153.3520
153.1166
153.2034
153.1595
153.1421
153.1594
153.750
153.2466
153.10
153.2652
153.1489
153.3618
153.1535
153.2529
153.696
153.1304
153.1622
153.1588
153.2310
153.1598
153.3614
153.1397
153.4236
153.2966
153.5086
153.2564
153.2922
153.1065
153.1423
153.2119
153.1865
153.2623
153.1488
153.3554
153.783
153.3311
153.1821
153.3725
153.1501
153.1880
153.606
153.642
153.2055
153.1664
153.2807
153.2178
153.4542
153.1864
153.4389
153.2686
153.4585
153.2669
153.2907
153.1686
153.967
153.2467
153.1635
153.2774
153.1251
153.3358
153.707
153.2995
153.1292
153.2741
153.1275
153.1148
153.985
153.277
153.2439
153.1651
153.3030
153.1747
153.4354
153.1888
153.4085
153.2653
153.3994
153.2572
153.2128
153.2215
153.1178
153.3251
153.2068
153.3446
153.1589
153.3700
153.572
153.2180
153.1015
153.2181
153.1450
153.587
153.1227
153.164
153.2907
153.1916
153.3642
153.1987
153.4227
153.1651
153.3219
153.2113
153.3168
153.2851
153.1992
153.2524
153.915
153.3574
153.2075
153.3736
153.1491
153.3583
153.1063
153.1854
153.1000
153.1723
153.1945
153.1124
153.2231
153.536
153.3502
153.1950
153.3759
153.2029
153.4081
153.1573
153.2301
153.2150
153.2874
153.3327
153.2172
153.3397
153.1380
153.4194
153.2370
153.3697
153.1550
153.2702
153.605
153.729
153.964
153.1497
153.2355
153.1122
153.2529
153.440
153.3536
153.2112
153.3832
153.1885
153.3040
153.1554
153.1945
153.2695
153.2904
153.4011
153.2482
153.3932
153.1754
153.4622
153.2559
153.3930
153.1804
153.2531
153.964
153.544
153.1657
153.1621
153.3035
153.1482
153.3365
153.1017
153.4011
153.2083
153.3562
153.1992
153.2725
153.2202
153.1575
153.3067
153.2937
153.4460
153.2630
153.4021
153.1528
153.4195
153.2164
153.2919
153.1427
153.1852
153.1404
153.63
153.1811
153.1707
153.3474
153.1635
153.3344
153.1119
153.3718
153.2147
153.3170
153.1969
153.2391
153.2721
153.1843
153.3872
153.3294
153.5115
153.2939
153.4571
153.2175
153.4258
153.2317
153.2783
153.1732
153.1170
153.1611
153.9
153.2289
153.1663
153.3701
153.1603
153.3307
153.650
153.2640
153.1396
153.2078
153.1748
153.1655
153.2960
153.1551
153.4040
153.3206
153.5153
153.3015
153.4208
153.1630
153.3158
153.1916
153.2149
153.1743
153.955
153.1962
152.9798
153.2423
153.1669
153.3944
153.1785
153.3035
153.919
153.2093
153.1648
153.2049
153.2403
153.2069
153.3681
153.1857
153.4534
153.3293
153.5378
153.3097
153.3822
153.1711
153.2303
153.2125
153.2004
153.2336
153.1298
153.3020
153.770
153.3325
153.1878
153.3950
153.1483
153.2102
153.176
153.748
153.1517
153.1494
153.2451
153.2024
153.4018
153.1848
153.4657
153.3206
153.5004
153.2897
153.3395
153.1710
153.1752
153.2565
153.2068
153.2801
153.1547
153.3767
153.952
153.3579
153.2080
153.3923
153.2027
153.2292
153.1380
153.1330
153.2800
153.2407
153.3548
153.2481
153.4611
153.2342
153.5026
153.3393
153.5080
153.3077
153.2587
153.1786
153.1423
153.3103
153.2353
153.3479
153.1688
153.4015
153.1156
153.3298
153.1641
153.3268
153.1733
153.1467
153.1415
153.694
153.2935
153.2141
153.3668
153.2610
153.5074
153.1969
153.4151
153.2838
153.4111
153.2940
153.2713
153.2890
153.1719
153.3854
153.2680
153.3904
153.2108
153.4278
153.1017
153.2648
153.1459
153.2653
153.1976
153.1498
153.2074
153.794
153.3535
153.2572
153.4278
153.2725
153.4899
153.2585
153.4131
153.2916
153.3859
153.3496
153.2327
153.3063
153.1640
153.4224
153.2618
153.4184
153.2328
153.4102
153.1467
153.2294
153.1445
153.2177
153.2292
153.1463
153.2577
153.777
153.3784
153.2377
153.4073
153.2536
153.4407
153.2039
153.2952
153.2590
153.3395
153.3833
153.2457
153.3582
153.1785
153.4635
153.2884
153.4454
153.2334
153.3491
153.1148
153.1305
153.1499
153.2057
153.2777
153.1542
153.3106
153.1319
153.4431
153.2734
153.4455
153.2547
153.3979
153.1908
153.2165
153.2810
153.3025
153.4111
153.2634
153.3841
153.1632
153.4582
153.2521
153.4021
153.2025
153.2921
153.1303
153.923
153.1891
153.1993
153.3150
153.1709
153.3531
153.969
153.3998
153.2444
153.3883
153.2378
153.3023
153.2078
153.1788
153.3178
153.3227
153.4708
153.2879
153.4324
153.2050
153.4763
153.2693
153.3948
153.1990
153.1870
153.1287
153.522
153.2190
153.1944
153.3624
153.1953
153.3527
153.1116
153.3780
153.2064
153.3199
153.1924
153.2253
153.2489
153.1654
153.3655
153.3113
153.4926
153.3168
153.4699
153.1715
153.3941
153.2015
153.2664
153.1567
153.1514
153.1876
153.236
153.2360
153.1817
153.3748
153.1651
153.3397
153.1100
153.3319
153.1880
153.2494
153.2008
153.1859
153.2964
153.1818
153.4205
153.3449
153.5476
153.3480
153.4787
153.2495
153.3930
153.2351
153.2560
153.2065
153.1370
153.2452
153.732
153.3071
153.2074
153.4141
153.1874
153.3090
153.902
153.2159
153.1380
153.1851
153.2046
153.1883
153.3567
153.1879
153.4472
153.3194
153.5281
153.2959
153.4035
153.1592
153.2392
153.1971
153.1885
153.2061
153.1236
153.2882
153.430
153.3027
153.1878
153.3943
153.1781
153.2898
153.832
153.1448
153.1821
153.1880
153.2555
153.1999
153.3724
153.1589
153.4465
153.3189
153.5326
153.2889
153.3203
153.1396
153.1687
153.2315
153.1970
153.2678
153.1291
153.3222
153.941
153.3488
153.1974
153.3920
153.1900
153.2285
153.1082
153.1193
153.2516
153.2015
153.3054
153.2134
153.4296
153.1608
153.4285
153.2698
153.4582
153.2686
153.2570
153.1777
153.1323
153.2792
153.1939
153.3041
153.1967
153.3943
153.1008
153.3265
153.1748
153.3205
153.1717
153.2008
153.1815
153.999
153.3056
153.2276
153.3582
153.2320
153.4515
153.2069
153.4433
153.3037
153.4453
153.2964
153.2251
153.2146
153.1378
153.3488
153.2411
153.3750
153.1991
153.4049
153.1316
153.2974
153.1597
153.2749
153.1846
153.1179
153.1954
153.932
153.3480
153.2332
153.3985
153.2735
153.5021
153.2135
153.3763
153.2489
153.3421
153.2938
153.2079
153.2639
153.1191
153.3747
153.2214
153.3680
153.2139
153.3857
153.978
153.2107
153.1163
153.2018
153.1994
153.1114
153.2350
153.937
153.3866
153.2539
153.4198
153.2249
153.3962
153.2076
153.3157
153.2559
153.3311
153.3600
153.2167
153.3560
153.2109
153.4852
153.2955
153.4415
153.2015
153.3378
153.958
153.1246
153.1308
153.1799
153.2508
153.1503
153.3101
153.1092
153.4217
153.2454
153.4260
153.2575
153.4302
153.2047
153.2347
153.2823
153.3112
153.3986
153.2874
153.4420
153.1973
153.4770
153.2763
153.3984
153.2088
153.2594
153.996
153.714
153.1622
153.1974
153.3232
153.1529
153.3322
153.1295
153.4394
153.2736
153.4316
153.2705
153.3324
153.2235
153.2153
153.3439
153.3448
153.4806
153.3075
153.4549
153.2203
153.4954
153.2802
153.4067
153.2128
153.2279
153.1484
153.680
153.2246
153.2093
153.3706
153.2097
153.4018
153.1764
153.4582
153.2664
153.3491
153.2344
153.2866
153.2565
153.1727
153.3683
153.3537
153.5354
153.3322
153.4948
153.2540
153.4817
153.2862
153.3703
153.2179
153.2198
153.2304
153.971
153.2900
153.2439
153.4269
153.2391
153.4111
153.1740
153.3958
153.2420
153.3150
153.2366
153.2548
153.3022
153.1754
153.4055
153.3371
153.5346
153.3549
153.4912
153.2136
153.4065
153.2366
153.2781
153.2176
153.1830
153.2625
153.757
153.3171
153.2457
153.4571
153.2380
153.3879
153.1477
153.3131
153.2206
153.2938
153.2880
153.2638
153.4119
153.2366
153.4951
153.3983
153.6141
153.4087
153.5521
153.3034
153.4143
153.2981
153.3102
153.2957
153.2107
153.3238
153.1042
153.3632
153.2545
153.4763
153.2432
153.3912
153.1497
153.2512
153.2382
153.2489
153.2861
153.2553
153.4352
153.2382
153.5259
153.4114
153.6365
153.3848
153.4681
153.2481
153.3073
153.3033
153.2886
153.3336
153.2159
153.3975
153.1838
153.4404
153.3039
153.5141
153.2772
153.3354
153.1801
153.2324
153.2996
153.2820
153.3669
153.3263
153.5410
153.2869
153.5573
153.4101
153.5869
153.3834
153.3851
153.2251
153.2283
153.3225
153.2852
153.3516
153.2360
153.4445
153.1656
153.4200
153.2890
153.4840
153.2541
153.2750
153.1794
153.2032
153.3542
153.3254
153.4417
153.3228
153.5452
153.3120
153.5792
153.4139
153.5944
153.3882
153.3888
153.3109
153.2485
153.3972
153.3168
153.4275
153.3081
153.5199
153.2180
153.4402
153.2936
153.4374
153.2763
153.2757
153.2219
153.1607
153.3729
153.3206
153.4679
153.3496
153.5576
153.3183
153.5612
153.4119
153.5661
153.4126
153.3515
153.3480
153.2673
153.4645
153.3521
153.4832
153.3163
153.5262
153.2400
153.4245
153.2796
153.3920
153.2910
153.2551
153.2657
153.1569
153.4178
153.3328
153.4850
153.3474
153.5785
153.3325
153.5285
153.4073
153.5251
153.4453
153.3435
153.3713
153.2660
153.5104
153.3807
153.5244
153.3296
153.5565
153.2604
153.4083
153.2790
153.3630
153.3215
153.2336
153.3114
153.1657
153.4536
153.3275
153.4914
153.3608
153.5943
153.2984
153.4448
153.3692
153.4683
153.4561
153.3523
153.4206
153.2636
153.5294
153.3827
153.5402
153.3200
153.4758
153.2371
153.3199
153.2565
153.3393
153.3592
153.2341
153.3624
153.2070
153.5151
153.3589
153.5430
153.3797
153.5616
153.3390
153.4242
153.3933
153.4532
153.5006
153.3796
153.4795
153.3227
153.6033
153.4188
153.5644
153.3757
153.5101
153.2778
153.2856
153.2913
153.3349
153.4031
153.2604
153.4023
153.2288
153.5463
153.3772
153.5465
153.3625
153.5195
153.3323
153.3659
153.4113
153.4367
153.5229
153.3884
153.5289
153.3005
153.5873
153.3902
153.5238
153.3099
153.3921
153.2144
153.2001
153.2848
153.3156
153.4323
153.3471
153.5149
153.2918
153.5858
153.4113
153.5635
153.3942
153.4960
153.3344
153.3278
153.4431
153.4421
153.5677
153.4105
153.5595
153.3036
153.5899
153.3922
153.4951
153.3313
153.3873
153.2980
153.2303
153.3552
153.3582
153.5062
153.3224
153.5148
153.2957
153.5854
153.4073
153.5383
153.3663
153.4056
153.3794
153.3247
153.4871
153.4583
153.6190
153.4689
153.6388
153.3481
153.5991
153.3872
153.4673
153.3224
153.3705
153.3312
153.2079
153.3838
153.3642
153.5320
153.3184
153.4927
153.2555
153.5276
153.3727
153.4884
153.3664
153.4069
153.4141
153.3234
153.5289
153.4749
153.6600
153.4857
153.6179
153.3371
153.5604
153.3749
153.4391
153.3228
153.3301
153.3631
153.1992
153.4063
153.3681
153.5688
153.3986
153.5625
153.3188
153.5321
153.3934
153.4728
153.3956
153.3941
153.4873
153.3623
153.5863
153.4997
153.6953
153.4799
153.6263
153.3285
153.5105
153.3459
153.3874
153.3243
153.2952
153.3669
153.1864
153.4263
153.3564
153.5596
153.3362
153.5423
153.2968
153.4588
153.3349
153.3877
153.3729
153.3500
153.4797
153.3024
153.5642
153.4667
153.6862
153.4790
153.5722
153.3180
153.4493
153.3376
153.3645
153.3567
153.2810
153.4082
153.1944
153.4498
153.3591
153.5635
153.3433
153.4896
153.2687
153.3822
153.3421
153.3809
153.4127
153.3764
153.5537
153.3747
153.6433
153.5190
153.7303
153.5201
153.6266
153.3685
153.4131
153.3819
153.3645
153.3930
153.2987
153.4465
153.1880
153.4539
153.3362
153.5364
153.3243
153.4256
153.2274
153.2909
153.3314
153.3524
153.4272
153.3576
153.5405
153.3395
153.6252
153.4953
153.7157
153.5110
153.5805
153.3603
153.3733
153.4187
153.3797
153.4425
153.3209
153.5085
153.2548
153.5095
153.3588
153.5578
153.3572
153.4456
153.2627
153.2622
153.3793
153.3576
153.4602
153.3672
153.6211
153.3918
153.6549
153.5033
153.7038
153.4853
153.4834
153.3228
153.3117
153.4331
153.3816
153.4753
153.3601
153.5611
153.2695
153.5069
153.3484
153.5317
153.3564
153.3754
153.3056
153.2562
153.4171
153.3704
153.4938
153.4048
153.6488
153.3944
153.6416
153.4878
153.6627
153.4638
153.4102
153.3396
153.3023
153.4642
153.3866
153.5038
153.3735
153.5618
153.2694
153.4827
153.3153
153.4841
153.3418
153.3179
153.2956
153.2263
153.4423
153.3730
153.5122
153.3968
153.6402
153.3966
153.6305
153.4793
153.6256
153.4812
153.4402
153.4166
153.3409
153.5379
153.4259
153.5553
153.3660
153.5679
153.2888
153.4679
153.3162
153.4414
153.3451
153.3204
153.3414
153.2244
153.4733
153.3741
153.5270
153.4011
153.6216
153.3178
153.5186
153.4201
153.5517
153.4769
153.3572
153.4150
153.3371
153.5777
153.4476
153.5924
153.3846
153.5808
153.3297
153.4454
153.3165
153.4135
153.3770
153.3002
153.3819
153.2248
153.5041
153.3786
153.5308
153.3948
153.6160
153.3475
153.4880
153.4104
153.5112
153.4994
153.3795
153.4428
153.3205
153.5859
153.4353
153.5922
153.3596
153.5229
153.2927
153.3734
153.2954
153.3720
153.3920
153.2905
153.4184
153.2371
153.5355
153.3878
153.5665
153.3885
153.5589
153.3334
153.4244
153.3960
153.4862
153.5311
153.4252
153.5239
153.3565
153.6349
153.4602
153.6140
153.4130
153.5379
153.3248
153.3487
153.3366
153.3678
153.4332
153.2935
153.4651
153.2637
153.5668
153.3932
153.5673
153.3957
153.5382
153.3217
153.3506
153.3922
153.4492
153.5389
153.3967
153.5353
153.3306
153.6187
153.4317
153.5889
153.3823
153.4705
153.2934
153.2852
153.3401
153.3556
153.4581
153.2981
153.4729
153.2696
153.5828
153.3961
153.5608
153.3924
153.5076
153.3562
153.3406
153.4472
153.4741
153.5964
153.4497
153.5918
153.3535
153.6325
153.4331
153.5695
153.3566
153.4004
153.2803
153.2375
153.3583
153.3551
153.4935
153.3409
153.5328
153.3135
153.6056
153.4039
153.5469
153.4058
153.5149
153.4346
153.3593
153.5050
153.5031
153.6566
153.4796
153.6439
153.4018
153.6611
153.4544
153.5629
153.3660
153.3683
153.3224
153.2403
153.4024
153.3783
153.5431
153.3544
153.5591
153.3359
153.6090
153.4193
153.5291
153.4082
153.4408
153.4326
153.3483
153.5372
153.5232
153.6971
153.5108
153.6755
153.4185
153.6561
153.4635
153.5466
153.3904
153.3666
153.4112
153.3012
153.4874
153.4329
153.6208
153.4351
153.6088
153.3444
153.5918
153.4270
153.4919
153.4029
153.4139
153.4699
153.3605
153.5852
153.5489
153.7459
153.5303
153.6888
153.4495
153.6589
153.4836
153.5351
153.4284
153.3798
153.4595
153.3003
153.5105
153.4359
153.6340
153.4200
153.6174
153.3325
153.5511
153.4164
153.4857
153.4338
153.4131
153.4986
153.3956
153.6423
153.5731
153.7737
153.5787
153.7161
153.4594
153.6230
153.4594
153.4992
153.4343
153.3868
153.4851
153.2961
153.5346
153.4536
153.6206
153.4250
153.5809
153.3462
153.5187
153.4240
153.4893
153.4816
153.4373
153.5576
153.4243
153.6901
153.5917
153.8037
153.5895
153.7241
153.4545
153.5832
153.4643
153.4875
153.4652
153.4157
153.5375
153.3286
153.5821
153.4947
153.7145
153.4803
153.6428
153.4076
153.5251
153.4700
153.5192
153.5399
153.5079
153.6476
153.4473
153.7160
153.6103
153.8268
153.6237
153.7384
153.4831
153.5760
153.5190
153.5378
153.5439
153.4262
153.5851
153.3934
153.6614
153.5482
153.7639
153.5240
153.6668
153.4351
153.5250
153.5146
153.5287
153.5693
153.5259
153.7085
153.5166
153.7969
153.6837
153.8997
153.6716
153.7656
153.5722
153.6306
153.5975
153.5744
153.5975
153.5046
153.6683
153.4349
153.6873
153.5515
153.7362
153.5228
153.6279
153.4320
153.4912
153.5238
153.5374
153.6035
153.5505
153.7452
153.5532
153.8261
153.6689
153.8797
153.6638
153.7254
153.5234
153.5510
153.5720
153.5276
153.5633
153.4725
153.6465
153.3729
153.6393
153.5229
153.7424
153.5349
153.6252
153.4281
153.4785
153.5590
153.5486
153.6369
153.5790
153.7837
153.5328
153.8185
153.6904
153.9002
153.6560
153.7120
153.5267
153.5584
153.6194
153.5812
153.6515
153.5271
153.7238
153.4822
153.7377
153.5827
153.7847
153.5697
153.6050
153.4603
153.4755
153.5895
153.5788
153.6802
153.5988
153.8137
153.6042
153.8791
153.7201
153.9261
153.7003
153.7405
153.5795
153.5665
153.6524
153.5893
153.6542
153.5284
153.7382
153.4390
153.6949
153.5689
153.7775
153.5664
153.5994
153.4371
153.4544
153.6012
153.5736
153.6923
153.6461
153.8946
153.6437
153.9046
153.7547
153.9360
153.7171
153.7140
153.5860
153.5748
153.6931
153.6334
153.7245
153.5947
153.7820
153.5051
153.7462
153.5819
153.7547
153.5752
153.5784
153.4863
153.4810
153.6402
153.6121
153.7352
153.6237
153.8544
153.6163
153.8907
153.7247
153.9111
153.7289
153.7238
153.6141
153.5476
153.6970
153.6321
153.7247
153.5743
153.7646
153.5127
153.7539
153.6091
153.7970
153.5935
153.5784
153.5451
153.5021
153.6787
153.6248
153.7554
153.6545
153.9025
153.6373
153.8930
153.7504
153.9284
153.7368
153.7260
153.6481
153.5805
153.7385
153.6566
153.7725
153.6531
153.8625
153.5531
153.7750
153.6321
153.8001
153.6177
153.6046
153.5339
153.4913
153.6937
153.6510
153.7929
153.6861
153.9314
153.6612
153.9111
153.7645
153.9333
153.7671
153.7457
153.6880
153.6368
153.7989
153.7149
153.8275
153.6776
153.8614
153.5966
153.8082
153.6346
153.7874
153.6305
153.6175
153.5836
153.5117
153.7216
153.6690
153.8128
153.6963
153.9254
153.6808
153.9145
153.7502
153.9154
153.7619
153.7198
153.6966
153.5995
153.7791
153.6890
153.8103
153.6481
153.8404
153.5723
153.7886
153.6359
153.7977
153.6537
153.6428
153.6347
153.5484
153.7717
153.6975
153.8339
153.7220
153.9686
153.7337
153.9647
153.8090
153.9534
153.7957
153.7592
153.7176
153.6153
153.8135
153.7132
153.8286
153.6831
153.9176
153.5852
153.7857
153.6539
153.8192
153.6762
153.6587
153.6414
153.5717
153.7979
153.7196
153.8707
153.7712
154.5
153.7531
153.9882
153.8446
153.9886
153.8343
153.7542
153.7367
153.6445
153.8428
153.7400
153.8696
153.7197
153.9174
153.6266
153.8303
153.6923
153.8375
153.7032
153.6808
153.6880
153.6273
153.8492
153.7593
153.9084
153.7886
154.177
153.7481
153.9769
153.8046
153.9412
153.8064
153.7525
153.7493
153.6801
153.8841
153.7746
153.9096
153.7620
153.9440
153.6452
153.8445
153.7095
153.8518
153.7256
153.6820
153.7146
153.6305
153.8609
153.7772
153.9290
153.8032
154.242
153.7329
153.9599
153.8287
153.9783
153.8405
153.8057
153.8153
153.7182
153.9118
153.8010
153.9287
153.7599
153.9721
153.6445
153.8345
153.7003
153.8274
153.7058
153.6771
153.7088
153.6449
153.8727
153.7902
153.9396
153.8099
154.240
153.7525
153.9744
153.8428
153.9782
153.8450
153.7861
153.7807
153.6891
153.8914
153.7872
153.9148
153.7430
153.9516
153.6327
153.8191
153.6955
153.8226
153.7115
153.6771
153.6984
153.6371
153.8733
153.7933
153.9476
153.8299
154.588
153.7881
153.9967
153.8596
153.9975
153.8644
153.8127
153.8242
153.7381
153.9351
153.8226
153.9487
153.7870
153.9719
153.6868
153.8709
153.7292
153.8420
153.7333
153.6808
153.7023
153.6511
153.8843
153.8045
153.9578
153.8338
154.741
153.7883
153.9942
153.8577
153.9910
153.8614
153.8099
153.8177
153.7236
153.9234
153.8186
153.9501
153.7768
153.9816
153.6767
153.8625
153.7297
153.8562
153.7467
153.7109
153.7657
153.7031
153.9245
153.8341
153.9794
153.8433
154.751
153.8023
154.171
153.8747
154.40
153.8676
153.8418
153.8330
153.7380
153.9334
153.8279
153.9549
153.7799
153.9938
153.6949
153.8853
153.7380
153.8555
153.7342
153.7156
153.7311
153.6367
153.8756
153.8019
153.9640
153.8540
154.603
153.7756
153.9925
153.8721
154.193
153.8770
153.8537
153.8428
153.7433
153.9457
153.8443
153.9758
153.7935
154.27
153.7028
153.8977
153.7595
153.8943
153.7666
153.7260
153.7477
153.6898
153.9241
153.8443
153.9908
153.8582
154.771
153.8038
154.401
153.9049
154.530
153.9060
153.8884
153.8588
153.7590
153.9568
153.8532
153.9790
153.7959
153.9970
153.6814
153.8873
153.7584
153.9134
153.7779
153.7753
153.7871
153.7129
153.9372
153.8427
153.9932
153.8881
154.1237
153.8458
154.725
153.9357
154.769
153.9224
153.8686
153.8647
153.7686
153.9607
153.8479
153.9695
153.8109
154.297
153.7142
153.9204
153.7830
153.9437
153.7969
153.7743
153.7591
153.6739
153.9010
153.8273
153.9781
153.8704
154.1160
153.8352
154.660
153.9274
154.870
153.9337
153.9013
153.8633
153.7600
153.9502
153.8502
153.9699
153.8198
154.483
153.7438
153.9517
153.8037
153.9592
153.8137
153.7881
153.7982
153.7017
153.9182
153.8430
153.9743
153.8886
154.1430
153.9011
154.1325
153.9661
154.1185
153.9628
153.9444
153.9046
153.8052
153.9765
153.8804
153.9879
153.8562
154.481
153.7973
153.9965
153.8215
153.9794
153.8240
153.8088
153.7812
153.6952
153.9032
153.8421
153.9938
153.8839
154.1248
153.8737
154.1075
153.9346
154.903
153.9405
153.9301
153.8655
153.7748
153.9532
153.8692
153.9917
153.8328
154.475
153.7615
153.9839
153.8215
153.9641
153.8167
153.7940
153.7704
153.7119
153.9155
153.8641
153.9975
153.8772
154.1141
153.8486
154.998
153.9473
154.1013
153.9389
153.9321
153.8635
153.7983
153.9688
153.8871
153.9977
153.8164
154.292
153.7196
153.9489
153.8071
153.9629
153.8130
153.8362
153.7778
153.7458
153.9377
153.8784
154.108
153.9022
154.1130
153.8446
154.975
153.9614
154.1435
153.9545
153.9582
153.8780
153.8239
153.9818
153.8947
154.17
153.8298
154.618
153.7541
153.9875
153.8404
154.136
153.8248
153.8144
153.7682
153.7461
153.9309
153.8068
153.9649
153.8656
154.988
153.8594
154.1276
153.9849
154.1632
153.9636
153.9422
153.8782
153.8326
153.9764
153.8903
153.9910
153.8450
154.561
153.7685
154.34
153.8572
154.452
153.8433
153.8567
153.8071
153.7717
153.9458
153.8887
154.37
153.9012
154.1235
153.8912
154.1589
153.9962
154.1796
153.9936
154.34
153.8867
153.8307
153.9671
153.9019
153.9941
153.8246
154.267
153.7630
154.99
153.8471
154.404
153.8444
153.8476
153.7651
153.7349
153.9038
153.8687
153.9923
153.9010
154.1269
153.8768
154.1398
153.9744
154.1441
153.9713
153.9585
153.8670
153.8370
153.9564
153.8942
153.9936
153.8419
154.471
153.7552
153.9953
153.8369
154.97
153.8330
153.8785
153.7881
153.7821
153.9278
153.8923
154.24
153.8962
154.1089
153.8581
154.1319
153.9948
154.1937
153.9874
153.9787
153.8658
153.8508
153.9634
153.9012
153.9886
153.8407
154.390
153.7563
154.87
153.8678
154.612
153.8621
153.8929
153.7807
153.7896
153.9259
153.8857
153.9945
153.9300
154.1661
153.9002
154.1669
154.243
154.2197
154.1
154.90
153.8638
153.8510
153.9463
153.8851
153.9620
153.8235
154.155
153.7545
154.184
153.8822
154.874
153.8873
153.9514
153.8068
153.8073
153.9282
153.8931
153.9845
153.8818
154.1222
153.8791
154.1547
154.79
154.2193
154.104
154.669
153.8698
153.8550
153.9411
153.9077
153.9776
153.8535
154.284
153.8004
154.580
153.9026
154.1009
153.8802
153.9446
153.7996
153.8269
153.9269
153.9136
154.32
153.9338
154.1356
153.8939
154.1685
154.177
154.2106
153.9958
154.297
153.8495
153.8685
153.9355
153.9059
153.9660
153.8488
154.391
153.7800
154.378
153.9008
154.1013
153.8762
153.9357
153.7702
153.8171
153.8989
153.8901
153.9759
153.9191
154.1294
153.8892
154.1651
154.361
154.2464
154.159
154.677
153.8786
153.9107
153.9460
153.9056
153.9656
153.8599
154.284
153.7623
154.244
153.8969
154.1124
153.8912
153.9653
153.7798
153.8326
153.8945
153.8785
153.9462
153.8802
154.720
153.8798
154.1652
154.236
154.2369
154.227
154.1083
153.8793
153.9122
153.9290
153.8975
153.9354
153.7995
153.9748
153.7504
154.165
153.8845
154.1063
153.8715
153.9370
153.7475
153.8121
153.8648
153.8824
153.9560
153.9102
154.1267
153.9061
154.1814
154.375
154.2407
154.333
154.1290
153.9045
153.9529
153.9474
153.9300
153.9652
153.8558
154.170
153.7872
154.456
153.9042
154.906
153.8880
153.9894
153.7922
153.8739
153.8941
153.9069
153.9662
153.9049
154.843
153.8780
154.1521
154.407
154.2532
154.220
154.1334
153.9310
153.9982
153.9616
153.9352
153.9566
153.8378
153.9971
153.7496
154.105
153.8987
154.1176
153.8751
153.9692
153.7764
153.8764
153.8807
153.8905
153.9354
153.8939
154.561
153.8744
154.1558
154.440
154.2629
154.293
154.1115
153.8930
153.9699
153.9257
153.9124
153.9157
153.8292
153.9933
153.7736
154.251
153.9145
154.1364
153.9222
154.439
153.8214
153.9289
153.8986
153.9279
153.9609
153.9299
154.1070
153.9122
154.1759
154.472
154.2623
154.632
154.1779
153.9414
154.271
153.9440
153.9498
153.9488
153.8533
153.9889
153.7562
154.88
153.8971
154.1017
153.8952
154.220
153.8112
153.9314
153.8720
153.9266
153.9444
153.8924
154.428
153.8578
154.1261
154.322
154.2571
154.127
154.1463
153.9189
154.376
153.9283
153.9411
153.9277
153.8739
153.9989
153.7567
153.9968
153.9073
154.1234
153.8865
154.233
153.8116
153.9528
153.8671
153.9195
153.9280
153.9016
154.386
153.8878
154.1444
154.473
154.2602
154.463
154.1507
153.8822
154.121
153.8963
153.9235
153.8896
153.8307
153.9482
153.7331
153.9791
153.8957
154.1190
153.9171
154.1017
153.8257
153.9805
153.8846
153.9453
153.9355
153.9185
154.478
153.8963
154.1433
154.410
154.2487
154.315
154.1882
153.9347
154.743
153.9355
153.9605
153.9169
153.8722
153.9832
153.7987
154.260
153.9242
154.1144
153.9011
154.684
153.8119
153.9735
153.8639
153.9261
153.9084
153.8859
153.9920
153.8426
154.1006
154.256
154.2437
154.335
154.1806
153.9200
154.783
153.9262
153.9688
153.9056
153.8531
153.9332
153.7343
153.9712
153.8992
154.1134
153.9063
154.704
153.8387
154.377
153.8968
153.9649
153.9268
153.9070
154.233
153.8916
154.1320
154.476
154.2591
154.327
154.1834
153.8936
154.851
153.9201
153.9636
153.9039
153.8387
153.9034
153.7296
153.9690
153.9174
154.1346
153.8929
154.1008
153.8570
154.775
153.9161
154.49
153.9558
153.9320
154.395
153.9047
154.1377
154.696
154.2649
154.606
154.2295
153.9577
154.1488
153.9489
154.191
153.9351
153.8806
153.9496
153.7815
153.9975
153.9349
154.1390
153.9578
154.1373
153.8726
154.1070
153.9503
154.437
153.9720
153.9716
154.629
153.9410
154.1617
154.864
154.2890
154.935
154.2686
153.9589
154.1820
153.9975
154.673
153.9633
153.9556
153.9754
153.8154
154.227
153.9651
154.1682
153.9593
154.1600
153.9163
154.1701
153.9734
154.875
153.9915
153.9919
154.317
153.9050
154.1198
154.916
154.2843
154.864
154.2665
153.9881
154.2281
154.1
154.1081
153.9640
153.9430
153.9554
153.8178
154.114
153.9709
154.1657
153.9683
154.1904
153.9159
154.1898
153.9974
154.1300
154.51
154.611
154.811
153.9841
154.1695
154.1078
154.2917
154.911
154.2646
154.46
154.2637
154.272
154.1108
153.9486
153.9360
153.9333
153.8268
154.86
153.9650
154.1468
153.9511
154.1635
153.8722
154.1632
153.9747
154.1476
153.9999
154.632
154.234
153.9358
154.1199
154.972
154.2736
154.964
154.2603
153.9981
154.2767
154.442
154.1887
154.28
154.494
153.9911
153.8739
154.314
154.95
154.1842
154.53
154.2118
153.9364
154.2419
154.220
154.2050
154.249
154.975
154.457
153.9944
154.1605
154.1361
154.3002
154.1180
154.3141
154.173
154.3190
154.821
154.2601
154.450
154.856
153.9999
153.9219
154.721
154.477
154.2084
154.496
154.2889
154.317
154.3712
154.1284
154.3437
154.1314
154.2767
154.1986
154.1479
154.2993
154.2462
154.3726
154.1846
154.2926
154.159
154.3753
154.1239
153.9356
153.9216
153.8334
153.8736
153.8925
153.9503
154.134
153.9809
153.9129
153.9186
153.7833
153.8811
153.7894
153.6602
153.6343
153.5477
153.2914
153.1329
153.1418
153.1974
153.1826
153.2404
153.2417
153.2257
153.3076
153.3524
153.3084
153.3741
153.4427
153.4388
153.4120
153.4521
153.5064
153.4936
153.5621
153.5434
153.5016
153.5697
153.5706
153.4799
153.5274
153.5821
153.5601
153.5065
153.4709
153.4412
153.3591
153.3621
153.2821
153.1943
153.1526
153.367
152.8652
152.7707
152.7183
152.6145
152.4128
152.2394
152.941
151.8812
151.7699
151.5954
151.3982
151.2329
151.517
150.8268
150.5908
150.5175
150.3885
150.1568
149.9728
149.7877
149.5759
149.4065
149.2537
149.567
148.8415
148.6881
148.4810
148.2077
148.953
147.9895
147.8389
147.6242
147.4498
147.3183
147.1212
147.380
146.9102
146.7528
146.6160
146.5105
146.3468
146.1253
146.1135
146.370
145.8863
145.7382
145.5828
145.4495
145.2809
145.1965
145.421
144.8889
144.7476
144.5893
144.4141
144.1833
144.1434
144.554
143.8777
143.7171
143.5632
143.4327
143.2648
143.2059
143.819
142.9380
142.8225
142.7111
142.5513
142.3434
142.3388
142.2641
142.1235
141.9743
141.8200
141.6935
141.5147
141.4245
141.2776
141.1272
140.9599
140.8274
140.6522
140.4002
140.3212
140.2407
140.1241
139.9285
139.7785
139.6489
139.4630
139.3518
139.2727
139.1302
138.9768
138.8976
138.7379
138.5499
138.3822
138.3645
138.2838
138.1177
137.9759
137.8079
137.6614
137.4830
137.3903
137.2359
137.874
136.9140
136.7837
136.5998
136.3626
136.2388
136.1654
136.643
135.8593
135.7066
135.5480
135.3946
135.2315
135.1609
135.266
134.8854
134.7465
134.6468
134.4777
134.2514
134.1763
134.1162
134.199
133.8341
133.6935
133.5229
133.3663
133.1902
133.980
132.9337
132.7764
132.6081
132.4740
132.2818
132.537
131.9033
131.8329
131.7335
131.5366
131.3724
131.1967
131.561
130.8664
130.7739
130.6726
130.5227
130.3619
130.2665
130.973
129.9209
129.7111
129.6875
129.5878
129.4627
129.2759
129.1203
128.9546
128.7793
128.6177
128.5191
128.3487
128.1891
128.126
127.8793
127.6803
127.4656
127.2735
127.2108
127.1023
126.9358
126.7516
126.5868
126.4424
126.2636
126.1259
126.406
125.8969
125.7450
125.5938
125.4896
125.3059
125.1038
124.9395
124.9052
124.7950
124.6495
124.4626
124.2968
124.1288
123.9528
123.7879
123.6845
123.5214
123.3573
123.1799
123.527
122.8517
122.6664
122.4241
122.3493
122.2431
122.1273
121.9174
121.7599
121.5768
121.4377
121.2459
121.1461
121.530
120.8959
120.7377
120.5930
120.4778
120.2930
120.917
119.9265
119.8884
119.7693
119.6357
119.4391
119.2826
119.874
118.9237
118.7315
118.6164
118.4941
118.3200
118.1539
117.9872
117.8352
117.6335
117.4270
117.2209
117.1611
117.463
116.9199
116.7129
116.5617
116.3789
116.2366
116.486
115.9327
115.8479
115.6984
115.5465
115.3933
115.2876
115.1072
114.9284
114.7061
114.6262
114.5535
114.4387
114.2683
114.924
113.9253
113.7462
113.5767
113.3928
113.2818
113.1572
112.9845
112.8228
112.6548
112.5147
112.3093
112.1213
111.8904
111.8069
111.7106
111.6031
111.4272
111.2538
111.955
110.9288
110.7733
110.5953
110.4970
110.3976
110.2462
110.981
109.9477
109.8453
109.6708
109.4888
109.2711
109.1614
109.1034
108.9817
108.8464
108.6552
108.5061
108.3063
108.1470
107.9596
107.8063
107.7016
107.5561
107.3899
107.2311
107.724
106.9358
106.7330
106.5507
106.3262
106.2327
106.1606
106.504
105.9075
105.7275
105.5814
105.3967
105.2593
105.783
104.9404
104.8490
104.7391
104.5881
104.4423
104.3020
104.1995
104.190
103.8376
103.6273
103.4998
103.4462
103.3225
103.2003
103.157
102.8604
102.6850
102.5078
102.3455
102.1662
102.555
101.9493
101.7938
101.6415
101.4904
101.3462
101.2083
101.144
100.8445
100.6300
100.5254
100.4661
100.3597
100.2536
100.751
99.9290
99.7611
99.5939
99.4430
99.2634
99.1566
99.719
98.9571
98.8112
98.6686
98.5293
98.4225
98.2450
98.626
97.8661
97.6969
97.6466
97.5476
97.4318
97.2818
97.1074
96.9623
96.7726
96.6168
96.4520
96.2857
96.1853
96.860
95.9440
95.8010
95.6609
95.5160
95.3968
95.2142
95.471
94.8599
94.6851
94.6326
94.5506
94.4522
94.3270
94.1536
94.157
93.8496
93.6963
93.5505
93.3776
93.2642
93.1753
93.805
92.9396
92.8043
92.6663
92.5434
92.4171
92.2328
92.574
91.8586
91.7277
91.6846
91.5842
91.4794
91.3447
91.1804
91.482
90.8789
90.7169
90.5733
90.4067
90.2893
90.2017
90.981
89.9585
89.8301
89.6996
89.5670
89.4470
89.2706
89.1141
88.9435
88.7674
88.7086
88.6511
88.5524
88.4635
88.3036
88.1572
88.246
87.8461
87.7090
87.5544
87.3959
87.2984
87.2178
87.1286
86.9914
86.8628
86.7324
86.6070
86.5007
86.3347
86.1624
85.9947
85.8185
85.7385
85.6977
85.5961
85.5024
85.3745
85.2214
85.975
84.9413
84.7759
84.6437
84.4936
84.3605
84.2831
84.2044
84.930
83.9629
83.8423
83.7162
83.5941
83.4806
83.3115
83.1576
83.71
82.8364
82.7627
82.7263
82.6388
82.5523
82.4389
82.2810
82.1524
82.145
81.8473
81.7193
81.5756
81.4290
81.3425
81.2672
81.1902
81.704
80.9468
80.8254
80.7049
80.5967
80.4807
80.3145
80.1635
80.96
79.8515
79.7888
79.7576
79.6768
79.5849
79.4773
79.3248
79.2019
79.754
78.9053
78.7684
78.6400
78.4974
78.3923
78.3236
78.2589
78.1586
78.406
77.9277
77.8189
77.7012
77.6021
77.4634
77.3033
77.1714
77.178
76.8796
76.8335
76.7987
76.7254
76.6535
76.5579
76.4153
76.2962
76.1765
76.184
75.8874
75.7663
75.6285
75.5110
75.4411
75.3772
75.3116
75.2082
75.978
74.9924
74.8809
74.7786
74.6830
74.5402
74.3885
74.2550
74.1072
73.9916
73.9621
73.9317
73.8530
73.7791
73.6867
73.5496
73.4363
73.3245
73.1808
73.381
72.9279
72.8018
72.6838
72.6106
72.5538
72.4974
72.4137
72.3131
72.2192
72.1229
72.208
71.9268
71.8199
71.6743
71.5412
71.4180
71.2708
71.1710
71.1496
71.1212
71.573
70.9984
70.9199
70.7908
70.6820
70.5786
70.4472
70.3076
70.1965
70.735
69.9479
69.8603
69.8079
69.7609
69.7062
69.6222
69.5261
69.4373
69.3446
69.2463
69.1622
69.479
68.9016
68.7656
68.6418
68.5025
68.4119
68.3905
68.3738
68.3110
68.2505
68.1844
68.726
67.9633
67.8689
67.7583
67.6126
67.4955
67.3913
67.2722
67.1658
67.1054
67.613
67.174
66.9568
66.8707
66.7912
66.7136
66.6307
66.5467
66.4736
66.3621
66.2279
66.1109
65.9998
65.8702
65.7820
65.7633
65.7520
65.7055
65.6541
65.6051
65.5118
65.4016
65.3120
65.2217
65.923
64.9679
64.8735
64.7674
64.6558
64.5739
64.5315
64.4906
64.4550
64.3969
64.3128
64.2327
64.1577
64.845
64.0
63.9279
63.8322
63.7056
63.5829
63.4756
63.3553
63.2577
63.2243
63.2219
63.1969
63.1416
63.959
63.361
62.9383
62.8437
62.7653
62.6750
62.5511
62.4392
62.3502
62.2510
62.1566
62.860
62.496
62.215
61.9961
61.9501
61.8832
61.8253
61.7598
61.6960
61.6258
61.5566
61.4795
61.3669
61.2564
61.1644
61.674
60.9604
60.9053
60.8979
60.9016
60.8711
60.8314
60.7994
60.7323
60.6358
60.5550
60.4831
60.3925
60.2728
60.1730
60.900
59.9949
59.8974
59.8359
59.8019
59.7753
59.7572
59.7276
59.6664
59.6005
59.5388
59.4731
59.4038
59.3363
59.2736
59.1814
59.647
58.9584
58.8671
58.7701
58.6821
58.6473
58.6539
58.6554
58.6246
58.5871
58.5551
58.4929
58.4038
58.3272
58.2578
58.1756
58.664
57.9670
57.8932
57.8139
57.7314
57.6614
57.6307
57.6147
57.5994
57.5791
57.5423
57.4920
57.4442
57.3984
57.3480
57.2906
57.2373
57.1803
57.880
56.9878
56.9053
56.8290
56.7427
56.6681
56.6458
56.6603
56.6701
56.6510
56.6278
56.6034
56.5515
56.4697
56.3949
56.3333
56.2645
56.1682
56.687
55.9964
55.9252
55.8430
55.7692
55.7301
55.7144
55.7015
55.6914
55.6720
55.6315
55.5782
55.5312
55.4842
55.4311
55.3731
55.3228
55.2692
55.1844
55.879
54.9982
54.9220
54.8403
54.7658
54.7398
54.7543
54.7755
54.7646
54.7404
54.7203
54.6880
54.6232
54.5477
54.4895
54.4313
54.3612
54.2662
54.1844
54.1260
54.646
53.9945
53.9375
53.9149
53.9135
53.9166
53.9131
53.9027
53.8720
53.8334
53.8000
53.7651
53.7251
53.6803
53.6367
53.5934
53.5179
53.4340
53.3629
53.3015
53.2352
53.1708
53.1432
53.1667
53.2032
53.2158
53.2077
53.1950
53.1848
53.1460
53.739
53.177
52.9701
52.9130
52.8337
52.7513
52.6863
52.6325
52.5695
52.5023
52.4598
52.4511
52.4536
52.4596
52.4692
52.4652
52.4344
52.3983
52.3626
52.3265
52.2917
52.2485
52.2044
52.1672
52.999
52.189
51.9441
51.8754
51.8120
51.7461
51.7034
51.7109
51.7457
51.7718
51.7693
51.7534
51.7460
51.7248
51.6774
51.6219
51.5753
51.5302
51.4811
51.4025
51.3286
51.2770
51.2322
51.1785
51.1373
51.1102
51.1164
51.1325
51.1524
51.1663
51.1628
51.1449
51.1218
51.979
51.778
51.557
51.239
50.9974
50.9697
50.9183
50.8475
50.7878
50.7367
50.6875
50.6317
50.5915
50.6031
50.6479
50.6854
50.6995
50.6996
50.7068
50.7041
50.6698
50.6170
50.5752
50.5439
50.5002
50.4403
50.3665
50.3101
50.2712
50.2237
50.1693
50.1315
50.1235
50.1351
50.1511
50.1703
50.1861
50.1807
50.1588
50.1386
50.1157
50.932
50.659
50.353
50.79
49.9785
49.9250
49.8559
49.7933
49.7361
49.6823
49.6272
49.5887
49.5984
49.6407
49.6837
49.7026
49.7024
49.7065
49.7081
49.6837
49.6399
49.6010
49.5715
49.5380
49.4927
49.4222
49.3646
49.3253
49.2904
49.2520
49.2160
49.2011
49.2197
49.2501
49.2808
49.3058
49.3197
49.3196
49.3089
49.2959
49.2876
49.2753
49.2570
49.2356
49.2244
49.1960
49.1444
49.907
49.517
49.222
48.9869
48.9478
48.9386
48.9767
49.269
49.753
49.951
49.1093
49.1243
49.1280
49.1046
49.621
49.346
49.110
48.9808
48.9324
48.8700
48.8259
48.7940
48.7584
48.7172
48.6852
48.6825
48.7053
48.7336
48.7635
48.7946
48.8116
48.8147
48.8037
48.7952
48.7836
48.7699
48.7544
48.7288
48.7181
48.6868
48.6353
48.5763
48.5251
48.4851
48.4440
48.4034
48.3918
48.4247
48.4826
48.5340
48.5571
48.5655
48.5827
48.5947
48.5773
48.5447
48.5190
48.4992
48.4775
48.4443
48.3917
48.3489
48.3241
48.3041
48.2744
48.2528
48.2494
48.2775
48.3166
48.3534
48.3902
48.4203
48.4368
48.4397
48.4437
48.4472
48.4461
48.4382
48.4255
48.4216
48.4088
48.3737
48.3282
48.2912
48.2715
48.2447
48.2146
48.1998
48.2335
48.3016
48.3671
48.4111
48.4398
48.4708
48.4976
48.4985
48.4663
48.4384
48.4229
48.4062
48.3795
48.3285
48.2853
48.2641
48.2470
48.2184
48.1910
48.1796
48.1992
48.2333
48.2712
48.3137
48.3536
48.3722
48.3738
48.3727
48.3688
48.3693
48.3616
48.3474
48.3334
48.3259
48.3000
48.2552
48.2055
48.1691
48.1407
48.1130
48.881
48.960
48.1480
48.2186
48.2771
48.3086
48.3318
48.3589
48.3738
48.3580
48.3295
48.3106
48.2996
48.2819
48.2508
48.2052
48.1763
48.1619
48.1486
48.1291
48.1146
48.1248
48.1638
48.2110
48.2580
48.3060
48.3402
48.3625
48.3709
48.3801
48.3906
48.3976
48.4006
48.3952
48.3942
48.3856
48.3517
48.3153
48.2919
48.2783
48.2614
48.2394
48.2408
48.2882
48.3551
48.4222
48.4704
48.4983
48.5355
48.5646
48.5627
48.5413
48.5226
48.5166
48.5049
48.4827
48.4421
48.4091
48.3977
48.3879
48.3655
48.3488
48.3503
48.3845
48.4278
48.4688
48.5183
48.5576
48.5812
48.5903
48.5950
48.6014
48.6042
48.6041
48.5944
48.5891
48.5838
48.5557
48.5116
48.4730
48.4485
48.4222
48.3975
48.3866
48.4219
48.4908
48.5627
48.6142
48.6413
48.6754
48.7079
48.7172
48.7003
48.6824
48.6763
48.6709
48.6535
48.6169
48.5840
48.5668
48.5640
48.5522
48.5413
48.5436
48.5794
48.6347
48.6883
48.7447
48.7924
48.8251
48.8489
48.8694
48.8836
48.8989
48.9058
48.9056
48.9126
48.9165
48.8958
48.8641
48.8427
48.8337
48.8218
48.8046
48.8048
48.8516
48.9284
49.64
49.641
49.1038
49.1448
49.1829
49.1881
49.1684
49.1530
49.1543
49.1522
49.1342
49.973
49.696
49.658
49.601
49.460
49.340
49.493
49.912
49.1405
49.1911
49.2435
49.2840
49.3027
49.3136
49.3175
49.3236
49.3308
49.3324
49.3286
49.3348
49.3306
49.3038
49.2662
49.2410
49.2248
49.2067
49.1902
49.2024
49.2554
49.3327
49.3979
49.4368
49.4627
49.5043
49.5329
49.5270
49.5128
49.5101
49.5139
49.5097
49.4850
49.4510
49.4385
49.4342
49.4333
49.4254
49.4294
49.4608
49.5169
49.5764
49.6381
49.6891
49.7242
49.7519
49.7691
49.7881
49.8034
49.8158
49.8234
49.8352
49.8429
49.8277
49.7989
49.7824
49.7792
49.7680
49.7538
49.7584
49.8116
49.8915
49.9697
50.207
50.635
50.1124
50.1456
50.1505
50.1332
50.1269
50.1301
50.1281
50.1037
50.711
50.597
50.619
50.524
50.365
50.395
50.725
50.1178
50.1678
50.2241
50.2758
50.3079
50.3249
50.3375
50.3545
50.3651
50.3701
50.3736
50.3814
50.3841
50.3636
50.3289
50.3019
50.2856
50.2672
50.2504
50.2653
50.3169
50.3996
50.4692
50.5163
50.5540
50.5986
50.6297
50.6270
50.6162
50.6180
50.6222
50.6141
50.5844
50.5621
50.5587
50.5592
50.5487
50.5476
50.5622
50.6087
50.6664
50.7234
50.7819
50.8289
50.8572
50.8801
50.9041
50.9238
50.9419
50.9536
50.9666
50.9850
50.9761
50.9551
50.9409
50.9378
50.9313
50.9159
50.9182
50.9707
51.510
51.1333
51.1902
51.2346
51.2815
51.3195
51.3220
51.3064
51.3099
51.3173
51.3126
51.2845
51.2573
51.2546
51.2533
51.2429
51.2321
51.2403
51.2844
51.3400
51.3985
51.4624
51.5115
51.5324
51.5464
51.5607
51.5712
51.5794
51.5836
51.5888
51.6036
51.5890
51.5609
51.5365
51.5229
51.5100
51.4937
51.5002
51.5539
51.6393
51.7114
51.7590
51.7967
51.8383
51.8638
51.8581
51.8408
51.8477
51.8560
51.8518
51.8225
51.8079
51.8119
51.8148
51.8091
51.8087
51.8354
51.8928
51.9551
52.197
52.707
52.1075
52.1288
52.1529
52.1723
52.1888
52.2038
52.2145
52.2339
52.2396
52.2185
52.2016
52.1984
52.1972
52.1876
52.1861
52.2321
52.3110
52.3952
52.4514
52.4995
52.5447
52.5834
52.5863
52.5729
52.5785
52.5872
52.5831
52.5517
52.5317
52.5311
52.5327
52.5204
52.5142
52.5378
52.5851
52.6403
52.7007
52.7565
52.7960
52.8157
52.8325
52.8465
52.8606
52.8669
52.8738
52.8938
52.8907
52.8618
52.8323
52.8142
52.7997
52.7785
52.7717
52.8180
52.8987
52.9831
53.373
53.775
53.1202
53.1517
53.1503
53.1355
53.1411
53.1488
53.1440
53.1166
53.1020
53.1073
53.1074
53.956
53.958
53.1275
53.1837
53.2437
53.3062
53.3591
53.3964
53.4214
53.4478
53.4707
53.4885
53.4996
53.5122
53.5256
53.5104
53.4834
53.4713
53.4711
53.4613
53.4453
53.4732
53.5509
53.6459
53.7162
53.7656
53.8174
53.8593
53.8615
53.8463
53.8440
53.8497
53.8444
53.8131
53.7884
53.7936
53.7955
53.7824
53.7795
53.8089
53.8615
53.9132
53.9782
54.284
54.592
54.718
54.857
54.1008
54.1129
54.1205
54.1326
54.1511
54.1400
54.1105
54.868
54.729
54.568
54.394
54.617
54.1339
54.2257
54.2872
54.3258
54.3674
54.4021
54.4002
54.3811
54.3797
54.3857
54.3829
54.3578
54.3379
54.3419
54.3441
54.3352
54.3373
54.3719
54.4272
54.4885
54.5518
54.6005
54.6332
54.6542
54.6808
54.7001
54.7159
54.7270
54.7483
54.7606
54.7410
54.7194
54.7147
54.7096
54.6936
54.6902
54.7422
54.8296
54.9125
54.9668
55.115
55.629
55.891
55.741
55.630
55.712
55.702
55.469
55.164
55.122
55.136
55.24
54.9940
55.128
55.611
55.1151
55.1777
55.2325
55.2681
55.2879
55.3055
55.3185
55.3292
55.3355
55.3453
55.3584
55.3404
55.3097
55.2811
55.2705
55.2446
55.2270
55.2580
55.3346
55.4227
55.4755
55.5199
55.5634
55.5916
55.5819
55.5684
55.5726
55.5740
55.5568
55.5244
55.5180
55.5196
55.5158
55.5074
55.5204
55.5699
55.6268
55.6913
55.7470
55.7816
55.8054
55.8336
55.8550
55.8699
55.8827
55.8939
55.9132
55.8920
55.8667
55.8539
55.8462
55.8292
55.8178
55.8629
55.9511
56.393
56.973
56.1465
56.1961
56.2155
56.2000
56.1890
56.1949
56.1894
56.1571
56.1288
56.1272
56.1233
56.1066
56.997
56.1304
56.1832
56.2394
56.3018
56.3505
56.3785
56.3925
56.4061
56.4173
56.4238
56.4295
56.4488
56.4421
56.4086
56.3780
56.3593
56.3401
56.3154
56.3301
56.3993
56.4901
56.5516
56.5922
56.6364
56.6747
56.6722
56.6533
56.6583
56.6584
56.6429
56.6081
56.5940
56.5941
56.5841
56.5705
56.5800
56.6234
56.6800
56.7404
56.7934
56.8265
56.8500
56.8752
56.8951
56.9082
56.9164
56.9350
56.9401
56.9130
56.8865
56.8799
56.8704
56.8457
56.8544
56.9191
57.92
57.843
57.1361
57.1846
57.2246
57.2267
57.2025
57.2048
57.2055
57.1885
57.1480
57.1336
57.1330
57.1151
57.951
57.1077
57.1518
57.2011
57.2605
57.3169
57.3471
57.3609
57.3766
57.3899
57.3942
57.3994
57.4125
57.4111
57.3784
57.3431
57.3217
57.3004
57.2701
57.2750
57.3367
57.4237
57.4888
57.5291
57.5728
57.6050
57.5979
57.5822
57.5830
57.5825
57.5612
57.5236
57.5107
57.5067
57.4956
57.4853
57.5079
57.5578
57.6156
57.6791
57.7281
57.7561
57.7770
57.7958
57.8106
57.8189
57.8274
57.8402
57.8272
57.7937
57.7769
57.7690
57.7434
57.7200
57.7568
57.8393
57.9232
57.9816
58.268
58.692
58.873
58.710
58.624
58.645
58.549
58.147
57.9905
57.9879
57.9762
57.9503
57.9476
57.9831
58.306
58.882
58.1443
58.1795
58.1920
58.2013
58.2097
58.2188
58.2188
58.2295
58.2328
58.2017
58.1669
58.1440
58.1223
58.942
58.956
58.1586
58.2472
58.3095
58.3476
58.3887
58.4174
58.4072
58.3859
58.3891
58.3890
58.3635
58.3274
58.3168
58.3114
58.2953
58.2808
58.3020
58.3483
58.4022
58.4624
58.5011
58.5195
58.5404
58.5590
58.5696
58.5744
58.5842
58.5947
58.5725
58.5417
58.5275
58.5148
58.4834
58.4756
58.5334
58.6171
58.6861
58.7327
58.7782
58.8128
58.8071
58.7871
58.7893
58.7887
58.7622
58.7258
58.7194
58.7130
58.6885
58.6705
58.6930
58.7409
58.7935
58.8539
58.8933
58.9093
58.9214
58.9295
58.9387
58.9376
58.9451
58.9516
58.9247
58.8874
58.8599
58.8361
58.7997
58.7924
58.8491
58.9370
59.44
59.389
59.766
59.1053
59.921
59.709
59.734
59.700
59.442
59.109
58.9985
58.9955
58.9755
58.9666
58.9956
59.460
59.1014
59.1565
59.1911
59.2088
59.2262
59.2377
59.2474
59.2495
59.2636
59.2708
59.2398
59.2108
59.1978
59.1791
59.1466
59.1571
59.2296
59.3126
59.3701
59.4142
59.4584
59.4794
59.4573
59.4400
59.4396
59.4306
59.3915
59.3642
59.3621
59.3492
59.3242
59.3209
59.3573
59.4025
59.4563
59.5035
59.5293
59.5373
59.5429
59.5532
59.5563
59.5592
59.5775
59.5671
59.5311
59.4947
59.4744
59.4484
59.4261
59.4616
59.5374
59.6126
59.6497
59.6824
59.7188
59.7155
59.6895
59.6823
59.6787
59.6629
59.6231
59.6043
59.5990
59.5799
59.5627
59.5782
59.6241
59.6789
59.7365
59.7698
59.7866
59.8007
59.8144
59.8237
59.8272
59.8371
59.8416
59.8124
59.7816
59.7698
59.7523
59.7243
59.7299
59.7972
59.8758
59.9334
59.9699
60.109
60.254
60.6
59.9795
59.9770
59.9652
59.9245
59.8998
59.8972
59.8812
59.8560
59.8536
59.8928
59.9400
59.9940
60.367
60.554
60.586
60.605
60.616
60.658
60.679
60.766
60.623
60.208
59.9885
59.9675
59.9335
59.9118
59.9596
60.399
60.1079
60.1401
60.1722
60.2021
60.1845
60.1602
60.1529
60.1466
60.1170
60.769
60.665
60.572
60.400
60.297
60.605
60.1061
60.1600
60.2075
60.2298
60.2400
60.2510
60.2613
60.2627
60.2632
60.2758
60.2675
60.2310
60.2081
60.1940
60.1690
60.1430
60.1805
60.2574
60.3340
60.3749
60.4164
60.4526
60.4438
60.4132
60.4067
60.3998
60.3716
60.3286
60.3141
60.3011
60.2759
60.2549
60.2828
60.3289
60.3833
60.4356
60.4667
60.4727
60.4745
60.4811
60.4763
60.4728
60.4767
60.4709
60.4326
60.3946
60.3694
60.3381
60.3076
60.3314
60.4080
60.4809
60.5165
60.5519
60.5837
60.5764
60.5473
60.5390
60.5293
60.5091
60.4678
60.4488
60.4416
60.4227
60.4074
60.4267
60.4766
60.5269
60.5774
60.6012
60.6095
60.6170
60.6263
60.6292
60.6296
60.6367
60.6344
60.5955
60.5649
60.5522
60.5251
60.4957
60.5254
60.6045
60.6806
60.7177
60.7552
60.7874
60.7752
60.7404
60.7293
60.7241
60.6945
60.6570
60.6423
60.6304
60.6034
60.5805
60.5997
60.6430
60.6884
60.7350
60.7607
60.7608
60.7620
60.7619
60.7574
60.7531
60.7666
60.7579
60.7210
60.6817
60.6562
60.6245
60.5913
60.6172
60.6925
60.7643
60.7932
60.8217
60.8468
60.8319
60.8011
60.7892
60.7830
60.7559
60.7135
60.6983
60.6847
60.6593
60.6417
60.6672
60.7118
60.7552
60.8007
60.8185
60.8266
60.8371
60.8409
60.8406
60.8414
60.8548
60.8432
60.8043
60.7754
60.7591
60.7250
60.6974
60.7347
60.8118
60.8828
60.9184
60.9543
60.9813
60.9625
60.9314
60.9271
60.9192
60.8857
60.8463
60.8378
60.8206
60.7929
60.7808
60.8065
60.8486
60.8936
60.9373
60.9526
60.9511
60.9512
60.9534
60.9508
60.9477
60.9617
60.9445
60.9015
60.8627
60.8342
60.7964
60.7744
60.8135
60.8932
60.9533
60.9795
61.118
61.310
61.94
60.9806
60.9750
60.9669
60.9286
60.8935
60.8831
60.8697
60.8455
60.8378
60.8688
60.9149
60.9637
61.18
61.169
61.218
61.265
61.312
61.296
61.318
61.402
61.137
60.9752
60.9531
60.9310
60.8910
60.8796
60.9394
61.205
61.759
61.1107
61.1497
61.1620
61.1330
61.1096
61.1013
61.834
61.369
61.42
60.9955
60.9701
60.9385
60.9364
60.9748
61.125
61.605
61.896
61.944
61.937
61.939
61.944
61.874
61.926
61.949
61.588
61.140
60.9834
60.9502
60.9070
60.9100
60.9746
61.496
61.905
61.1155
61.1463
61.1421
61.1107
61.961
61.880
61.651
61.180
60.9951
60.9836
60.9608
60.9372
60.9465
60.9876
61.334
61.776
61.1016
61.1082
61.1155
61.1227
61.1236
61.1209
61.1297
61.1203
61.814
61.510
61.323
61.5
60.9655
60.9872
61.583
61.1297
61.1652
61.1980
61.2296
61.2176
61.1836
61.1762
61.1675
61.1347
61.897
61.749
61.640
61.293
61.113
61.353
61.772
61.1216
61.1636
61.1822
61.1831
61.1826
61.1765
61.1696
61.1630
61.1750
61.1545
61.1103
61.713
61.427
61.32
60.9734
61.113
61.912
61.1528
61.1790
61.2060
61.2262
61.2025
61.1714
61.1629
61.1520
61.1136
61.761
61.648
61.448
61.216
61.112
61.424
61.836
61.1289
61.1592
61.1719
61.1760
61.1840
61.1838
61.1803
61.1827
61.1885
61.1574
61.1166
61.959
61.719
61.341
61.357
61.976
61.1730
61.2224
61.2510
61.2912
61.2941
61.2604
61.2385
61.2278
61.2099
61.1634
61.1339
61.1250
61.996
61.744
61.780
61.1138
61.1532
61.2022
61.2314
61.2302
61.2251
61.2242
61.2196
61.2087
61.2129
61.2055
61.1639
61.1188
61.883
61.517
61.105
61.211
61.950
61.1689
61.2016
61.2264
61.2551
61.2429
61.2063
61.1901
61.1796
61.1579
61.1083
61.871
61.746
61.508
61.261
61.392
61.765
61.1207
61.1595
61.1766
61.1802
61.1844
61.1875
61.1868
61.1821
61.1928
61.1791
61.1345
61.1052
61.881
61.521
61.215
61.572
61.1279
61.1915
61.2181
61.2488
61.2744
61.2495
61.2164
61.2092
61.2012
61.1640
61.1239
61.1123
61.934
61.589
61.407
61.663
61.1019
61.1459
61.1801
61.1907
61.1832
61.1770
61.1768
61.1682
61.1644
61.1749
61.1469
61.1057
61.676
61.337
60.9926
60.9757
61.270
61.1020
61.1482
61.1684
61.1929
61.2014
61.1683
61.1430
61.1331
61.1199
61.770
61.408
61.280
61.79
60.9763
60.9652
61.8
61.424
61.878
61.1129
61.1192
61.1200
61.1208
61.1202
61.1172
61.1153
61.1226
61.872
61.511
61.356
61.101
60.9694
60.9736
61.387
61.1077
61.1481
61.1750
61.2069
61.2072
61.1709
61.1482
61.1412
61.1213
61.717
61.479
61.326
61.32
60.9754
60.9804
61.176
61.586
61.1086
61.1319
61.1307
61.1281
61.1179
61.1143
61.1044
61.1081
61.1002
61.585
61.134
60.9774
60.9365
60.8941
60.9081
60.9756
61.461
61.750
61.1002
61.1287
61.1154
61.814
61.684
61.619
61.341
60.9872
60.9682
60.9539
60.9276
60.9068
60.9230
60.9645
61.45
61.447
61.602
61.613
61.653
61.684
61.704
61.653
61.777
61.674
61.270
60.9990
60.9780
60.9436
60.9123
60.9506
61.225
61.864
61.1147
61.1428
61.1666
61.1385
61.1060
61.959
61.826
61.455
61.18
60.9896
60.9704
60.9374
60.9216
60.9460
60.9814
61.211
61.580
61.655
61.605
61.537
61.501
61.457
61.402
61.483
61.279
60.9848
60.9427
60.9095
60.8664
60.8414
60.8816
60.9533
61.46
61.259
61.528
61.683
61.430
61.204
61.107
60.9952
60.9527
60.9122
60.8976
60.8788
60.8489
60.8370
60.8675
60.9079
60.9536
60.9814
60.9920
60.9945
60.9960
60.9957
60.9906
60.9895
60.9970
60.9682
60.9299
60.9078
60.8865
60.8475
60.8397
60.8975
60.9710
61.195
61.494
61.824
61.883
61.530
61.309
61.241
61.16
60.9533
60.9235
60.9101
60.8846
60.8514
60.8497
60.8842
60.9231
60.9711
60.9988
61.18
61.19
60.9987
60.9944
60.9854
60.9843
60.9827
60.9442
60.8963
60.8631
60.8290
60.7874
60.7864
60.8463
60.9188
60.9532
60.9748
61.38
60.9991
60.9620
60.9477
60.9388
60.9173
60.8672
60.8348
60.8214
60.7938
60.7691
60.7749
60.8094
60.8539
60.8985
60.9225
60.9274
60.9344
60.9388
60.9384
60.9339
60.9435
60.9328
60.8908
60.8555
60.8360
60.8016
60.7615
60.7751
60.8440
60.9173
60.9540
60.9851
61.138
61.10
60.9630
60.9450
60.9316
60.9032
60.8496
60.8308
60.8163
60.7809
60.7536
60.7679
60.8098
60.8522
60.8945
60.9107
60.9104
60.9070
60.9051
60.8960
60.8839
60.8881
60.8756
60.8314
60.7879
60.7545
60.7144
60.6734
60.6931
60.7653
60.8315
60.8591
60.8869
60.9145
60.8983
60.8653
60.8567
60.8456
60.8155
60.7682
60.7429
60.7295
60.7006
60.6763
60.6892
60.7298
60.7711
60.8104
60.8271
60.8282
60.8320
60.8350
60.8313
60.8213
60.8306
60.8138
60.7716
60.7376
60.7168
60.6794
60.6470
60.6754
60.7451
60.8105
60.8429
60.8727
60.8989
60.8795
60.8454
60.8329
60.8163
60.7774
60.7273
60.7080
60.6885

END