=~=~=~=~=~=~=~=~=~=~=~= PuTTY log 2025.04.24 09:01:05 =~=~=~=~=~=~=~=~=~=~=~=




Speed (Hz)
60.924
60.4884
61.228
61.2435
61.2150
61.1137
60.9529
60.8285
60.7849
60.7805
60.7848
60.7305
60.5603
60.4548
60.4639
60.4993
60.5269
60.4818
60.3871
60.3235
60.3145
60.3552
60.3751
60.2437
60.1354
60.1557
60.2226
60.2547
60.2047
60.1183
60.823
60.936
60.1212
60.1504
60.578
59.9528
59.9448
59.9989
60.749
60.925
60.152
59.9773
59.9993
60.515
60.792
59.9832
59.8862
59.8969
59.9593
60.188
60.555
60.48
59.9605
59.9575
60.45
60.782
60.185
59.8991
59.8991
59.9784
60.426
60.556
59.9875
59.9429
59.9452
59.9739
60.320
60.18
59.8869
59.8496
59.9080
59.9818
60.388
59.9865
59.9364
59.9443
59.9844
60.250
59.9828
59.8604
59.8204
59.8734
59.9385
59.9920
59.9597
59.8951
59.8644
59.8853
59.9590
59.9733
59.8531
59.7875
59.8474
59.9283
59.9603
59.9031
59.8473
59.8476
59.8789
59.9264
59.9479
59.8434
59.7617
59.7924
59.8723
59.9557
59.9476
59.8753
59.8610
59.9019
59.9574
59.9696
59.8569
59.7879
59.8356
59.9079
59.9653
59.9840
59.9383
59.9007
59.9114
59.9804
60.500
59.9542
59.8468
59.8773
59.9708
60.310
60.226
59.9429
59.9146
59.9341
59.9828
60.404
59.9815
59.8772
59.8722
59.9392
60.166
60.437
59.9729
59.9311
59.9571
60.66
60.458
59.9648
59.8488
59.8470
59.9131
59.9776
60.154
59.9702
59.9210
59.9133
59.9414
60.35
59.9662
59.8458
59.8240
59.8991
59.9634
59.9818
59.9076
59.8629
59.8753
59.9067
59.9573
59.9454
59.8372
59.7845
59.8269
59.9115
59.9855
59.9457
59.8769
59.8779
59.9291
59.9819
59.9589
59.8452
59.8046
59.8610
59.9290
59.9940
59.9894
59.9336
59.9084
59.9394
60.160
60.415
59.9228
59.8516
59.9153
59.9943
60.387
60.5
59.9282
59.9150
59.9402
59.9943
60.344
59.9403
59.8483
59.8697
59.9445
60.168
60.120
59.9435
59.9257
59.9593
60.97
60.247
59.9095
59.8116
59.8356
59.9135
59.9809
59.9962
59.9384
59.8948
59.8946
59.9422
60.50
59.9200
59.8150
59.8267
59.9085
59.9666
59.9601
59.8786
59.8439
59.8642
59.9060
59.9538
59.9097
59.8059
59.7807
59.8397
59.9206
59.9775
59.9155
59.8630
59.8812
59.9346
59.9784
59.9264
59.8077
59.7976
59.8666
59.9331
59.9907
59.9618
59.9202
59.9113
59.9501
60.335
60.190
59.8922
59.8602
59.9385
60.117
60.429
59.9821
59.9237
59.9257
59.9532
60.61
60.115
59.9115
59.8539
59.9029
59.9797
60.444
60.79
59.9465
59.9433
59.9794
60.307
60.229
59.8966
59.8302
59.8746
59.9488
60.75
60.0
59.9393
59.9055
59.9193
59.9775
60.196
59.9103
59.8227
59.8612
59.9451
59.9920
59.9588
59.8864
59.8684
59.8935
59.9379
59.9802
59.9023
59.8114
59.8160
59.8870
59.9720
59.9984
59.9244
59.8898
59.9209
59.9743
60.68
59.9179
59.8302
59.8466
59.9160
59.9806
60.203
59.9776
59.9316
59.9346
59.9919
60.642
60.37
59.8902
59.9022
59.9896
60.508
60.565
59.9843
59.9500
59.9617
59.9986
60.532
60.178
59.9094
59.8806
59.9435
60.186
60.722
60.147
59.9688
59.9823
60.182
60.632
60.117
59.8902
59.8581
59.9251
59.9903
60.378
60.4
59.9433
59.9256
59.9502
60.182
60.191
59.8952
59.8405
59.9098
59.9896
60.254
59.9584
59.8900
59.8883
59.9222
59.9739
59.9896
59.8885
59.8227
59.8560
59.9278
60.26
59.9881
59.9179
59.9058
59.9479
60.96
60.146
59.9005
59.8396
59.8873
59.9614
60.218
60.296
59.9702
59.9418
59.9671
60.391
60.903
59.9841
59.8969
59.9405
60.276
60.747
60.505
59.9828
59.9645
59.9821
60.281
60.777
60.17
59.8970
59.8986
59.9721
60.457
60.679
60.36
59.9771
60.29
60.532
60.827
59.9806
59.8753
59.8865
59.9616
60.238
60.491
59.9920
59.9433
59.9340
59.9799
60.531
60.64
59.8834
59.8701
59.9433
60.40
60.149
59.9371
59.8946
59.9105
59.9456
59.9969
59.9749
59.8671
59.8288
59.8819
59.9665
60.367
59.9839
59.9201
59.9215
59.9678
60.223
59.9904
59.8746
59.8504
59.9126
59.9790
60.437
60.302
59.9782
59.9627
59.9938
60.766
60.841
59.9551
59.9032
59.9724
60.511
60.908
60.453
59.9861
59.9788
60.81
60.613
60.883
59.9925
59.9224
59.9564
60.284
60.995
60.775
60.99
60.18
60.364
60.885
60.850
59.9598
59.8840
59.9246
59.9980
60.628
60.716
60.141
59.9767
59.9799
60.363
60.872
59.9853
59.8859
59.9128
59.9942
60.427
60.140
59.9417
59.9227
59.9453
59.9930
60.403
59.9696
59.8744
59.8681
59.9361
60.205
60.478
59.9728
59.9365
59.9639
60.201
60.609
59.9808
59.8816
59.8973
59.9716
60.340
60.756
60.324
59.9929
59.9953
60.430
60.1199
60.682
59.9465
59.9439
60.324
60.1007
60.1206
60.550
60.126
60.175
60.486
60.1067
60.772
59.9715
59.9377
59.9922
60.680
60.1259
60.747
60.285
60.337
60.698
60.1174
60.715
59.9436
59.9082
59.9708
60.439
60.942
60.538
59.9957
59.9753
59.9945
60.602
60.667
59.9487
59.8948
59.9555
60.248
60.591
60.20
59.9404
59.9448
59.9766
60.226
60.356
59.9296
59.8539
59.8830
59.9553
60.423
60.303
59.9594
59.9468
59.9871
60.433
60.502
59.9382
59.8764
59.9163
59.9835
60.520
60.696
60.176
59.9824
59.9981
60.669
60.1267
60.277
59.9374
59.9767
60.596
60.1105
60.913
60.230
59.9946
60.112
60.624
60.1140
60.414
59.9464
59.9478
60.182
60.937
60.1092
60.403
60.104
60.355
60.837
60.1186
60.227
59.9114
59.9164
59.9924
60.516
60.782
60.244
59.9747
59.9727
60.132
60.864
60.350
59.9110
59.9022
59.9815
60.428
60.487
59.9696
59.9311
59.9480
59.9819
60.286
60.37
59.8945
59.8526
59.9087
59.9963
60.668
60.154
59.9502
59.9635
60.185
60.692
60.308
59.9126
59.8886
59.9554
60.244
60.856
60.602
60.18
59.9876
60.248
60.997
60.1028
59.9789
59.9307
60.36
60.897
60.1296
60.768
60.183
60.107
60.366
60.937
60.1126
60.91
59.9405
59.9782
60.497
60.1232
60.897
60.198
60.166
60.571
60.1057
60.1046
59.9765
59.8991
59.9433
60.221
60.856
60.762
60.139
59.9835
59.9953
60.471
60.883
59.9809
59.8886
59.9284
60.131
60.598
60.307
59.9496
59.9346
59.9670
60.91
60.442
59.9663
59.8720
59.8699
59.9405
60.276
60.525
59.9743
59.9351
59.9647
60.208
60.589
59.9701
59.8714
59.8845
59.9618
60.284
60.728
60.302
59.9841
59.9864
60.386
60.1155
60.578
59.9391
59.9431
60.340
60.1007
60.1111
60.383
59.9917
60.34
60.395
60.935
60.662
59.9645
59.9307
59.9831
60.638
60.1146
60.550
60.36
60.124
60.550
60.1021
60.541
59.9280
59.8971
59.9588
60.237
60.791
60.444
59.9871
59.9674
59.9885
60.552
60.551
59.9329
59.8790
59.9410
60.172
60.501
59.9901
59.9320
59.9318
59.9558
60.67
60.209
59.9248
59.8520
59.8794
59.9600
60.464
60.314
59.9642
59.9543
59.9894
60.414
60.461
59.9332
59.8740
59.9192
59.9929
60.601
60.661
60.130
59.9817
60.62
60.767
60.1268
60.252
59.9371
59.9772
60.638
60.1143
60.977
60.303
60.67
60.253
60.736
60.1203
60.481
59.9573
59.9576
60.303
60.1105
60.1260
60.576
60.275
60.557
60.1012
60.1343
60.352
59.9259
59.9400
60.87
60.686
60.982
60.461
60.22
59.9942
60.334
60.1025
60.473
59.9276
59.9218
60.50
60.659
60.748
59.9917
59.9486
59.9634
60.22
60.564
60.245
59.9152
59.8798
59.9344
60.169
60.810
60.252
59.9698
59.9806
60.283
60.758
60.381
59.9275
59.9055
59.9682
60.327
60.969
60.764
60.247
60.107
60.444
60.1208
60.1148
59.9900
59.9557
60.313
60.1090
60.1399
60.849
60.246
60.200
60.533
60.1094
60.1230
60.215
59.9564
59.9911
60.633
60.1309
60.1070
60.468
60.430
60.770
60.1225
60.1118
59.9875
59.9233
59.9733
60.416
60.970
60.909
60.315
59.9925
60.55
60.690
60.1068
59.9981
59.9112
59.9519
60.351
60.782
60.405
59.9679
59.9561
59.9812
60.192
60.585
59.9783
59.8858
59.8917
59.9666
60.501
60.658
59.9912
59.9606
59.9965
60.489
60.799
59.9864
59.8986
59.9162
59.9850
60.511
60.909
60.429
59.9998
60.41
60.707
60.1443
60.730
59.9559
59.9676
60.588
60.1220
60.1300
60.597
60.225
60.331
60.703
60.1287
60.884
59.9778
59.9550
60.135
60.894
60.1377
60.788
60.314
60.428
60.854
60.1326
60.748
59.9481
59.9284
59.9977
60.606
60.1089
60.676
60.119
59.9934
60.193
60.851
60.727
59.9462
59.9033
59.9704
60.421
60.752
60.80
59.9493
59.9547
59.9888
60.417
60.385
59.9300
59.8722
59.9107
59.9882
60.630
60.304
59.9624
59.9587
60.40
60.607
60.534
59.9366
59.8867
59.9410
60.127
60.757
60.773
60.247
59.9936
60.145
60.902
60.1280
60.90
59.9323
59.9843
60.704
60.1204
60.938
60.234
60.9
60.227
60.789
60.1265
60.390
59.9456
59.9590
60.321
60.1043
60.978
60.215
60.2
60.287
60.735
60.989
59.9963
59.8940
59.9178
59.9912
60.543
60.734
60.164
59.9712
59.9673
60.63
60.724
59.9922
59.8741
59.8832
59.9636
60.265
60.235
59.9427
59.9025
59.9211
59.9605
60.108
59.9676
59.8634
59.8327
59.8906
59.9745
60.282
59.9699
59.9183
59.9310
59.9844
60.331
59.9744
59.8633
59.8617
59.9294
59.9870
60.417
60.135
59.9589
59.9415
59.9845
60.671
60.632
59.9390
59.8984
59.9731
60.489
60.861
60.342
59.9790
59.9755
60.9
60.587
60.657
59.9600
59.8986
59.9367
60.131
60.821
60.464
59.9796
59.9783
60.177
60.665
60.570
59.9333
59.8706
59.9131
59.9849
60.510
60.389
59.9751
59.9426
59.9510
60.111
60.494
59.9393
59.8469
59.8825
59.9695
60.189
59.9834
59.9097
59.8983
59.9203
59.9668
60.128
59.9300
59.8382
59.8453
59.9165
59.9961
60.115
59.9340
59.9016
59.9319
59.9826
60.173
59.9323
59.8428
59.8622
59.9320
59.9973
60.391
59.9999
59.9582
59.9618
60.147
60.884
60.222
59.9016
59.9080
59.9935
60.564
60.671
60.5
59.9670
59.9814
60.165
60.677
60.375
59.9353
59.9074
59.9615
60.347
60.805
60.213
59.9700
59.9811
60.229
60.668
60.147
59.8906
59.8689
59.9387
60.87
60.635
60.236
59.9614
59.9345
59.9584
60.258
60.274
59.9052
59.8505
59.9165
59.9913
60.273
59.9692
59.9059
59.9051
59.9403
59.9978
60.84
59.9060
59.8412
59.8755
59.9497
60.280
60.84
59.9351
59.9201
59.9636
60.197
60.244
59.9129
59.8620
59.9104
59.9823
60.450
60.521
60.53
59.9784
59.9975
60.618
60.1120
60.62
59.9195
59.9663
60.506
60.988
60.732
60.40
59.9870
60.122
60.593
60.1060
60.325
59.9373
59.9455
60.219
60.1030
60.1143
60.369
60.75
60.296
60.752
60.1047
60.72
59.9055
59.9178
59.9888
60.553
60.862
60.305
59.9837
59.9748
60.165
60.874
60.273
59.8980
59.8878
59.9690
60.321
60.367
59.9576
59.9219
59.9392
59.9721
60.251
59.9981
59.8898
59.8538
59.9146
59.9930
60.493
59.9935
59.9375
59.9447
59.9886
60.357
59.9947
59.8825
59.8593
59.9219
59.9943
60.582
60.377
59.9868
59.9736
60.102
60.850
60.798
59.9527
59.9125
59.9854
60.579
60.941
60.454
59.9871
59.9815
60.103
60.616
60.771
59.9738
59.9068
59.9420
60.206
60.916
60.659
60.19
59.9953
60.281
60.793
60.744
59.9491
59.8760
59.9157
59.9901
60.520
60.475
59.9848
59.9466
59.9601
60.227
60.711
59.9666
59.8705
59.9047
59.9818
60.255
60.7
59.9283
59.9095
59.9330
59.9726
60.133
59.9407
59.8493
59.8509
59.9214
60.40
60.299
59.9601
59.9239
59.9510
60.39
60.384
59.9494
59.8603
59.8738
59.9398
60.35
60.502
60.90
59.9643
59.9669
60.200
60.1024
60.491
59.9270
59.9249
60.64
60.708
60.867
60.202
59.9761
59.9814
60.195
60.812
60.543
59.9409
59.9015
59.9632
60.458
60.1002
60.441
59.9882
59.9974
60.404
60.857
60.377
59.9132
59.8785
59.9418
60.112
60.606
60.222
59.9659
59.9426
59.9689
60.412
60.446
59.9176
59.8573
59.9220
59.9919
60.223
59.9662
59.9128
59.9163
59.9421
59.9865
60.38
59.9052
59.8331
59.8598
59.9321
60.109
59.9910
59.9155
59.9094
59.9504
60.93
60.126
59.8973
59.8350
59.8871
59.9595
60.181
60.357
59.9838
59.9476
59.9616
60.257
60.853
59.9859
59.8891
59.9315
60.179
60.703
60.516
59.9797
59.9591
59.9812
60.282
60.757
60.79
59.9042
59.9021
59.9727
60.474
60.650
59.9957
59.9611
59.9863
60.345
60.705
59.9751
59.8649
59.8710
59.9401
60.32
60.367
59.9876
59.9428
59.9290
59.9571
60.228
59.9724
59.8523
59.8409
59.9229
59.9890
59.9942
59.9127
59.8735
59.8878
59.9262
59.9764
59.9533
59.8451
59.8029
59.8550
59.9324
59.9991
59.9527
59.8893
59.8988
59.9510
60.42
59.9725
59.8584
59.8289
59.8889
59.9572
60.224
60.84
59.9507
59.9293
59.9581
60.347
60.522
59.9296
59.8695
59.9345
60.138
60.548
60.123
59.9548
59.9468
59.9734
60.217
60.561
59.9646
59.8864
59.9106
59.9796
60.510
60.367
59.9659
59.9542
59.9840
60.254
60.372
59.9253
59.8439
59.8803
59.9510
60.69
60.201
59.9625
59.9249
59.9268
59.9701
60.298
59.9448
59.8325
59.8508
59.9361
59.9920
59.9768
59.8973
59.8725
59.8984
59.9460
59.9922
59.9304
59.8249
59.8092
59.8723
59.9506
59.9896
59.9240
59.8772
59.9008
59.9574
60.29
59.9394
59.8378
59.8398
59.9140
59.9864
60.400
59.9976
59.9446
59.9418
59.9921
60.710
60.344
59.9097
59.8892
59.9715
60.381
60.652
60.18
59.9545
59.9628
59.9970
60.560
60.516
59.9444
59.8945
59.9454
60.243
60.848
60.394
59.9802
59.9818
60.164
60.626
60.350
59.9164
59.8694
59.9204
59.9920
60.461
60.235
59.9647
59.9390
59.9545
60.185
60.484
59.9293
59.8459
59.8973
59.9787
60.198
59.9706
59.9005
59.8971
59.9305
59.9774
60.116
59.9241
59.8408
59.8617
59.9314
60.154
60.167
59.9418
59.9181
59.9545
60.114
60.357
59.9360
59.8529
59.8877
59.9610
60.266
60.564
60.134
59.9750
59.9852
60.458
60.1127
60.273
59.9208
59.9457
60.303
60.842
60.773
60.87
59.9756
59.9922
60.382
60.990
60.470
59.9421
59.9277
59.9864
60.632
60.996
60.367
59.9954
60.87
60.538
60.982
60.299
59.9071
59.8944
59.9626
60.323
60.744
60.286
59.9781
59.9608
59.9931
60.668
60.421
59.9197
59.8890
59.9563
60.249
60.486
59.9736
59.9219
59.9371
59.9741
60.214
60.112
59.8992
59.8431
59.8949
59.9816
60.559
60.60
59.9398
59.9439
59.9921
60.462
60.316
59.9164
59.8713
59.9268
59.9922
60.559
60.522
59.9937
59.9691
60.1
60.777
60.1031
59.9841
59.9208
59.9835
60.689
60.1084
60.700
60.41
59.9896
60.129
60.630
60.995
60.133
59.9361
59.9599
60.319
60.1029
60.953
60.262
60.112
60.382
60.853
60.1034
59.9902
59.8966
59.9265
59.9956
60.586
60.739
60.140
59.9684
59.9608
60.141
60.799
59.9994
59.8877
59.8987
59.9810
60.431
60.277
59.9459
59.9199
59.9449
59.9857
60.289
59.9801
59.8799
59.8615
59.9249
60.28
60.483
59.9836
59.9354
59.9582
60.79
60.469
59.9855
59.8801
59.8781
59.9458
60.144
60.722
60.379
59.9958
59.9871
60.277
60.1061
60.771
59.9510
59.9280
60.104
60.830
60.1099
60.446
59.9934
59.9957
60.301
60.910
60.902
59.9770
59.9208
59.9702
60.501
60.1128
60.693
60.81
60.95
60.477
60.967
60.718
59.9474
59.8954
59.9492
60.202
60.816
60.612
60.11
59.9688
59.9819
60.452
60.693
59.9477
59.8707
59.9137
59.9951
60.420
59.9968
59.9276
59.9190
59.9456
59.9878
60.225
59.9392
59.8540
59.8677
59.9375
60.183
60.213
59.9469
59.9204
59.9511
60.86
60.337
59.9312
59.8507
59.8841
59.9594
60.219
60.463
59.9956
59.9609
59.9749
60.367
60.1037
60.153
59.9094
59.9311
60.126
60.739
60.788
60.75
59.9724
59.9867
60.312
60.849
60.315
59.9277
59.9137
59.9778
60.527
60.842
60.217
59.9802
59.9923
60.377
60.762
60.96
59.8851
59.8712
59.9407
60.60
60.543
60.113
59.9555
59.9355
59.9651
60.374
60.139
59.8875
59.8537
59.9297
59.9996
60.201
59.9471
59.8910
59.9006
59.9367
59.9939
59.9911
59.8821
59.8256
59.8674
59.9431
60.248
59.9905
59.9210
59.9196
59.9644
60.150
60.74
59.8953
59.8494
59.9039
59.9751
60.401
60.312
59.9762
59.9547
59.9813
60.576
60.953
59.9811
59.9058
59.9639
60.466
60.977
60.645
59.9984
59.9856
60.54
60.518
60.915
60.80
59.9252
59.9442
60.148
60.895
60.907
60.232
59.9989
60.291
60.790
60.993
59.9906
59.8917
59.9163
59.9927
60.598
60.774
60.95
59.9670
59.9717
60.202
60.818
60.48
59.8950
59.9041
59.9852
60.421
60.332
59.9567
59.9287
59.9441
59.9893
60.434
59.9950
59.8883
59.8649
59.9193
60.19
60.576
59.9935
59.9381
59.9562
60.62
60.536
59.9969
59.8891
59.8839
59.9513
60.177
60.712
60.368
59.9901
59.9844
60.273
60.1110
60.854
59.9602
59.9340
60.131
60.845
60.1116
60.461
59.9927
59.9977
60.325
60.898
60.837
59.9779
59.9257
59.9789
60.546
60.1166
60.693
60.53
60.101
60.496
60.934
60.728
59.9426
59.8818
59.9314
60.51
60.630
60.502
59.9878
59.9591
59.9689
60.347
60.737
59.9589
59.8725
59.9168
59.9970
60.426
59.9991
59.9269
59.9179
59.9471
59.9930
60.239
59.9342
59.8432
59.8550
59.9284
60.117
60.248
59.9551
59.9285
59.9604
60.107
60.381
59.9384
59.8543
59.8842
59.9557
60.218
60.583
60.96
59.9719
59.9779
60.400
60.1131
60.368
59.9216
59.9360
60.207
60.778
60.774
60.63
59.9738
59.9903
60.314
60.871
60.420
59.9351
59.9177
59.9815
60.620
60.1092
60.460
59.9931
60.60
60.477
60.923
60.207
59.8988
59.8884
59.9573
60.274
60.679
60.179
59.9623
59.9486
59.9757
60.522
60.341
59.9086
59.8661
59.9383
60.136
60.370
59.9689
59.9139
59.9221
59.9526
59.9975
59.9981
59.8971
59.8406
59.8812
59.9590
60.384
60.33
59.9369
59.9284
59.9653
60.183
60.133
59.9003
59.8515
59.9097
59.9820
60.492
60.538
60.3
59.9697
59.9898
60.604
60.994
59.9896
59.9130
59.9680
60.517
60.1014
60.702
59.9965
59.9826
60.73
60.559
60.969
60.160
59.9240
59.9441
60.165
60.919
60.944
60.224
59.9983
60.236
60.746
60.969
59.9900
59.8914
59.9047
59.9784
60.457
60.746
60.160
59.9689
59.9687
60.86
60.717
59.9974
59.8827
59.8894
59.9706
60.262
60.247
59.9505
59.9142
59.9353
59.9722
60.248
59.9828
59.8713
59.8476
59.9140
59.9975
60.500
59.9851
59.9353
59.9566
60.64
60.527
59.9960
59.8849
59.8703
59.9293
59.9993
60.604
60.276
59.9818
59.9723
60.163
60.995
60.849
59.9661
59.9353
60.52
60.783
60.1118
60.517
59.9956
59.9886
60.218
60.823
60.869
59.9804
59.9188
59.9678
60.529
60.1275
60.871
60.199
60.152
60.507
60.983
60.815
59.9548
59.8921
59.9386
60.52
60.672
60.618
60.32
59.9684
59.9771
60.423
60.756
59.9600
59.8805
59.9354
60.159
60.526
60.93
59.9377
59.9284
59.9548
59.9970
60.386
59.9574
59.8658
59.8677
59.9365
60.242
60.384
59.9641
59.9351
59.9731
60.312
60.581
59.9579
59.8748
59.9048
59.9800
60.383
60.652
60.120
59.9759
59.9830
60.446
60.1202
60.461
59.9340
59.9490
60.391
60.973
60.1048
60.331
59.9994
60.90
60.455
60.995
60.576
59.9574
59.9311
59.9934
60.724
60.1136
60.507
60.109
60.292
60.743
60.1124
60.466
59.9265
59.9089
59.9719
60.350
60.838
60.439
59.9848
59.9660
59.9907
60.618
60.447
59.9170
59.8784
59.9471
60.169
60.402
59.9771
59.9260
59.9280
59.9674
60.214
60.201
59.9118
59.8583
59.9007
59.9748
60.471
60.134
59.9489
59.9438
59.9908
60.476
60.380
59.9215
59.8756
59.9327
59.9996
60.594
60.593
60.68
59.9831
60.63
60.837
60.1212
60.49
59.9247
59.9777
60.642
60.1121
60.795
60.143
59.9980
60.237
60.714
60.1061
60.215
59.9402
59.9528
60.224
60.996
60.1010
60.268
60.7
60.290
60.791
60.1027
59.9910
59.8949
59.9209
60.8
60.706
60.872
60.298
59.9823
59.9809
60.281
60.911
60.144
59.8972
59.8997
59.9817
60.389
60.326
59.9567
59.9294
59.9537
59.9916
60.402
59.9939
59.8906
59.8645
59.9224
60.32
60.518
59.9892
59.9418
59.9540
60.53
60.535
59.9975
59.8888
59.8826
59.9517
60.173
60.770
60.465
59.9935
59.9783
60.234
60.1033
60.856
59.9628
59.9302
60.78
60.788
60.1096
60.480
59.9997
59.9994
60.272
60.859
60.892
59.9850
59.9323
59.9773
60.488
60.1110
60.759
60.155
60.152
60.444
60.917
60.763
59.9505
59.8926
59.9507
60.235
60.827
60.665
60.22
59.9719
59.9871
60.501
60.815
59.9669
59.8816
59.9253
60.33
60.507
60.148
59.9474
59.9410
59.9687
60.92
60.431
59.9578
59.8627
59.8772
59.9539
60.415
60.488
59.9657
59.9352
59.9720
60.300
60.517
59.9563
59.8793
59.9077
59.9793
60.431
60.750
60.215
59.9790
59.9903
60.571
60.1319
60.530
59.9417
59.9549
60.452
60.1056
60.1056
60.334
59.9962
60.115
60.521
60.1075
60.611
59.9548
59.9410
60.54
60.812
60.1219
60.577
60.114
60.269
60.716
60.1109
60.403
59.9268
59.9164
59.9839
60.475
60.945
60.511
59.9953
59.9856
60.144
60.849
60.677
59.9376
59.8945
59.9648
60.392
60.632
59.9898
59.9387
59.9492
59.9835
60.306
60.314
59.9259
59.8703
59.9097
59.9910
60.661
60.309
59.9667
59.9638
60.69
60.574
60.527
59.9356
59.8850
59.9371
60.117
60.823
60.842
60.277
59.9967
60.252
60.1045
60.1351
60.161
59.9412
60.23
60.909
60.1376
60.1017
60.363
60.196
60.459
60.939
60.1284
60.384
59.9576
59.9808
60.524
60.1271
60.1237
60.488
60.262
60.552
60.1060
60.1288
60.137
59.9179
59.9486
60.266
60.913
60.1047
60.419
59.9993
59.9971
60.438
60.1084
60.224
59.9014
59.9140
59.9941
60.550
60.478
59.9692
59.9410
59.9608
60.27
60.569
60.8
59.8968
59.8792
59.9383
60.188
60.659
60.41
59.9532
59.9713
60.204
60.650
59.9977
59.8893
59.8877
59.9638
60.369
60.917
60.533
60.74
59.9995
60.383
60.1153
60.928
59.9698
59.9497
60.293
60.942
60.1142
60.573
60.117
60.182
60.526
60.1054
60.990
59.9877
59.9351
59.9835
60.536
60.1139
60.712
60.211
60.207
60.544
60.1051
60.848
59.9552
59.9034
59.9566
60.273
60.809
60.610
59.9991
59.9711
59.9811
60.442
60.692
59.9458
59.8697
59.9236
60.2
60.394
59.9962
59.9246
59.9128
59.9454
59.9969
60.194
59.9186
59.8367
59.8547
59.9270
60.107
60.168
59.9464
59.9184
59.9514
60.27
60.284
59.9322
59.8490
59.8797
59.9494
60.81
60.365
59.9874
59.9503
59.9564
60.141
60.843
60.69
59.8961
59.9179
60.72
60.647
60.608
59.9911
59.9617
59.9700
60.102
60.671
60.182
59.9135
59.8967
59.9609
60.343
60.695
60.66
59.9672
59.9837
60.215
60.658
60.11
59.8765
59.8619
59.9322
60.16
60.450
60.42
59.9514
59.9375
59.9663
60.356
60.168
59.8900
59.8487
59.9214
59.9911
60.154
59.9418
59.8895
59.8997
59.9358
59.9838
59.9863
59.8821
59.8300
59.8701
59.9458
60.278
59.9950
59.9266
59.9234
59.9695
60.223
60.44
59.8860
59.8381
59.8928
59.9715
60.380
60.388
59.9820
59.9573
59.9804
60.570
60.945
59.9790
59.9002
59.9562
60.348
60.800
60.498
59.9820
59.9705
59.9957
60.474
60.878
60.33
59.9178
59.9329
60.43
60.740
60.784
60.111
59.9860
60.121
60.627
60.901
59.9844
59.8835
59.9028
59.9779
60.403
60.618
60.14
59.9588
59.9576
60.4
60.619
59.9901
59.8809
59.8868
59.9661
60.222
60.216
59.9456
59.9064
59.9242
59.9672
60.203
59.9772
59.8698
59.8432
59.9072
59.9951
60.498
59.9843
59.9307
59.9455
59.9966
60.431
59.9885
59.8752
59.8666
59.9338
60.24
60.636
60.361
59.9881
59.9778
60.178
60.1018
60.898
59.9665
59.9323
60.71
60.787
60.1112
60.502
59.9950
59.9968
60.307
60.889
60.965
59.9904
59.9318
59.9747
60.485
60.1078
60.696
60.98
60.136
60.523
60.979
60.843
59.9581
59.8940
59.9474
60.163
60.744
60.608
59.9994
59.9723
59.9809
60.404
60.804
59.9672
59.8783
59.9175
59.9966
60.435
60.66
59.9364
59.9283
59.9541
59.9973
60.338
59.9467
59.8593
59.8723
59.9426
60.264
60.424
59.9704
59.9417
59.9738
60.280
60.565
59.9631
59.8821
59.9135
59.9865
60.418
60.701
60.259
59.9863
59.9970
60.593
60.1321
60.574
59.9430
59.9582
60.458
60.1065
60.1084
60.419
60.103
60.215
60.573
60.1138
60.722
59.9671
59.9478
60.170
60.922
60.1303
60.692
60.252
60.407
60.837
60.1313
60.676
59.9419
59.9229
59.9937
60.637
60.1066
60.667
60.137
59.9978
60.221
60.975
60.800
59.9474
59.9092
59.9868
60.625
60.834
60.120
59.9629
59.9707
60.53
60.571
60.526
59.9442
59.8898
59.9296
60.71
60.825
60.490
59.9788
59.9751
60.203
60.794
60.676
59.9535
59.9109
59.9663
60.374
60.999
60.961
60.417
60.102
60.366
60.1137
60.1485
60.360
59.9663
60.247
60.1051
60.1528
60.1236
60.564
60.377
60.624
60.1106
60.1468
60.555
59.9713
59.9957
60.721
60.1442
60.1356
60.658
60.516
60.827
60.1296
60.1509
60.387
59.9444
59.9679
60.420
60.1012
60.1186
60.571
60.141
60.156
60.654
60.1309
60.485
59.9342
59.9501
60.350
60.881
60.691
59.9947
59.9671
59.9903
60.247
60.712
60.231
59.9215
59.9024
59.9649
60.516
60.964
60.301
59.9857
60.38
60.578
60.979
60.311
59.9237
59.9277
60.12
60.656
60.1107
60.684
60.198
60.171
60.641
60.1442
60.1151
59.9929
59.9770
60.592
60.1265
60.1463
60.809
60.343
60.355
60.674
60.1266
60.1165
60.94
59.9673
60.240
60.971
60.1564
60.1068
60.475
60.515
60.889
60.1338
60.1090
59.9812
59.9337
59.9953
60.637
60.1173
60.922
60.342
60.88
60.231
60.923
60.1126
59.9930
59.9204
59.9750
60.539
60.910
60.411
59.9742
59.9679
59.9972
60.429
60.709
59.9812
59.9030
59.9210
59.9946
60.783
60.737
60.0
59.9824
60.196
60.733
60.929
59.9889
59.9160
59.9599
60.328
60.916
60.1149
60.638
60.232
60.360
60.1023
60.1674
60.740
59.9795
60.139
60.959
60.1522
60.1364
60.665
60.429
60.618
60.1054
60.1591
60.956
59.9917
59.9890
60.584
60.1394
60.1639
60.909
60.553
60.811
60.1288
60.1656
60.777
59.9614
59.9599
60.371
60.1023
60.1378
60.842
60.277
60.187
60.623
60.1352
60.864
59.9602
59.9378
60.128
60.750
60.840
60.72
59.9698
59.9882
60.180
60.678
60.467
59.9408
59.9032
59.9564
60.372
60.1018
60.527
59.9893
59.9903
60.348
60.866
60.568
59.9487
59.9225
59.9798
60.465
60.1101
60.908
60.436
60.242
60.534
60.1331
60.1430
60.263
59.9813
60.483
60.1217
60.1550
60.1074
60.548
60.488
60.746
60.1288
60.1479
60.472
59.9741
60.117
60.858
60.1543
60.1305
60.634
60.548
60.911
60.1387
60.1425
60.224
59.9488
59.9865
60.605
60.1185
60.1177
60.549
60.197
60.222
60.775
60.1277
60.242
59.9277
59.9613
60.442
60.883
60.592
59.9872
59.9679
59.9896
60.302
60.726
60.43
59.9130
59.9139
59.9828
60.639
60.839
60.127
59.9796
60.75
60.611
60.955
60.54
59.9148
59.9385
60.74
60.742
60.1163
60.677
60.264
60.286
60.834
60.1620
60.1020
59.9812
59.9863
60.711
60.1330
60.1450
60.801
60.390
60.465
60.807
60.1372
60.1086
60.19
59.9752
60.373
60.1141
60.1547
60.943
60.469
60.614
60.986
60.1420
60.918
59.9635
59.9346
60.23
60.733
60.1267
60.896
60.338
60.116
60.372
60.1081
60.1049
59.9787
59.9289
59.9961
60.696
60.978
60.281
59.9693
59.9750
60.79
60.612
60.693
59.9655
59.8951
59.9329
60.163
60.981
60.765
60.56
59.9963
60.395
60.932
60.910
59.9736
59.9190
59.9738
60.504
60.1169
60.1193
60.621
60.258
60.538
60.1307
60.1799
60.706
59.9860
60.317
60.1169
60.1645
60.1338
60.660
60.437
60.711
60.1289
60.1757
60.921
59.9977
60.92
60.829
60.1581
60.1553
60.900
60.669
60.919
60.1383
60.1658
60.635
59.9653
59.9855
60.598
60.1244
60.1431
60.780
60.349
60.339
60.774
60.1491
60.762
59.9608
59.9693
60.423
60.941
60.882
60.138
59.9800
60.37
60.425
60.901
60.451
59.9423
59.9207
59.9836
60.661
60.1149
60.473
59.9938
60.84
60.663
60.1131
60.543
59.9440
59.9338
59.9981
60.666
60.1206
60.908
60.449
60.371
60.765
60.1607
60.1381
60.130
59.9851
60.627
60.1301
60.1595
60.986
60.451
60.427
60.748
60.1390
60.1418
60.350
59.9782
60.174
60.924
60.1588
60.1154
60.585
60.624
60.997
60.1445
60.1215
59.9944
59.9390
59.9972
60.619
60.1183
60.1013
60.420
60.152
60.290
60.937
60.1232
60.80
59.9308
59.9783
60.589
60.1000
60.539
59.9807
59.9738
60.52
60.496
60.781
59.9864
59.9069
59.9248
60.25
60.864
60.891
60.159
59.9947
60.343
60.895
60.1088
60.28
59.9230
59.9608
60.381
60.986
60.1213
60.679
60.323
60.468
60.1089
60.1761
60.912
59.9859
60.186
60.1064
60.1644
60.1559
60.864
60.553
60.654
60.1062
60.1580
60.970
59.9957
59.9914
60.646
60.1457
60.1776
60.1093
60.716
60.913
60.1382
60.1737
60.895
59.9693
59.9677
60.424
60.1078
60.1448
60.931
60.433
60.364
60.670
60.1374
60.984
59.9784
59.9592
60.373
60.1043
60.1190
60.384
59.9949
60.61
60.387
60.948
60.785
59.9683
59.9281
59.9749
60.521
60.1213
60.788
60.137
60.177
60.643
60.1141
60.839
59.9737
59.9484
60.64
60.744
60.1387
60.1257
60.743
60.544
60.856
60.1613
60.1700
60.512
59.9982
60.650
60.1462
60.1877
60.1421
60.848
60.756
60.1006
60.1495
60.1697
60.680
59.9904
60.250
60.1041
60.1786
60.1590
60.937
60.831
60.1195
60.1685
60.1697
60.450
59.9662
60.113
60.893
60.1485
60.1409
60.803
60.436
60.443
60.987
60.1496
60.489
59.9548
59.9881
60.671
60.1145
60.868
60.78
59.9880
60.174
60.616
60.1016
60.275
59.9315
59.9272
59.9923
60.778
60.1058
60.329
59.9967
60.255
60.816
60.1171
60.272
59.9372
59.9580
60.359
60.947
60.1303
60.763
60.280
60.359
60.898
60.1634
60.1052
59.9905
59.9931
60.767
60.1396
60.1573
60.961
60.609
60.686
60.1037
60.1541
60.1193
60.108
59.9818
60.345
60.1108
60.1579
60.963
60.469
60.632
60.1105
60.1611
60.1086
59.9809
59.9486
60.121
60.804
60.1306
60.899
60.320
60.101
60.320
60.1021
60.998
59.9719
59.9238
59.9924
60.630
60.950
60.293
59.9698
59.9736
60.47
60.510
60.580
59.9532
59.8882
59.9221
59.9973
60.714
60.482
59.9783
59.9704
60.110
60.651
60.627
59.9485
59.8962
59.9487
60.214
60.854
60.945
60.388
60.68
60.281
60.1012
60.1506
60.380
59.9511
60.43
60.919
60.1396
60.1081
60.332
60.120
60.418
60.959
60.1415
60.621
59.9711
59.9764
60.445
60.1195
60.1250
60.555
60.365
60.640
60.1065
60.1345
60.341
59.9394
59.9570
60.335
60.903
60.1016
60.441
60.63
60.29
60.464
60.1091
60.433
59.9252
59.9255
60.67
60.660
60.688
59.9919
59.9569
59.9716
60.86
60.575
60.163
59.9086
59.8827
59.9477
60.349
60.920
60.308
59.9763
59.9896
60.390
60.859
60.320
59.9224
59.9160
59.9824
60.419
60.964
60.620
60.134
60.51
60.411
60.1196
60.1067
59.9802
59.9467
60.250
60.1030
60.1373
60.733
60.160
60.157
60.441
60.968
60.1081
60.1
59.9371
59.9800
60.555
60.1198
60.790
60.164
60.178
60.556
60.1027
60.883
59.9643
59.9085
59.9564
60.233
60.807
60.674
60.12
59.9649
59.9743
60.408
60.787
59.9714
59.8819
59.9212
60.32
60.509
60.130
59.9348
59.9209
59.9498
59.9929
60.252
59.9411
59.8532
59.8612
59.9312
60.190
60.358
59.9570
59.9192
59.9535
60.75
60.366
59.9427
59.8577
59.8864
59.9566
60.184
60.564
60.89
59.9691
59.9765
60.315
60.1039
60.303
59.9156
59.9322
60.212
60.825
60.838
60.91
59.9705
59.9891
60.277
60.889
60.520
59.9405
59.9165
59.9742
60.443
60.851
60.254
59.9815
60.24
60.486
60.912
60.288
59.9039
59.8828
59.9510
60.207
60.685
60.229
59.9677
59.9491
59.9760
60.412
60.314
59.9112
59.8691
59.9390
60.132
60.414
59.9701
59.9146
59.9216
59.9518
59.9997
60.60
59.9058
59.8437
59.8812
59.9571
60.400
60.130
59.9431
59.9375
59.9819
60.393
60.379
59.9235
59.8679
59.9130
59.9844
60.470
60.519
59.9979
59.9719
59.9928
60.655
60.1099
60.0
59.9142
59.9714
60.611
60.1119
60.867
60.162
59.9973
60.141
60.632
60.1084
60.237
59.9337
59.9480
60.195
60.944
60.989
60.269
60.57
60.326
60.775
60.1038
59.9991
59.9043
59.9284
59.9976
60.516
60.703
60.103
59.9630
59.9582
60.23
60.700
60.7
59.8828
59.8908
59.9715
60.342
60.283
59.9481
59.9111
59.9275
59.9666
60.78
59.9686
59.8638
59.8324
59.8922
59.9755
60.368
59.9739
59.9163
59.9316
59.9826
60.296
59.9782
59.8688
59.8561
59.9238
59.9880
60.401
60.111
59.9588
59.9448
59.9808
60.614
60.584
59.9383
59.8994
59.9734
60.414
60.747
60.188
59.9634
59.9639
60.20
60.559
60.573
59.9517
59.8886
59.9256
59.9956
60.639
60.358
59.9730
59.9715
60.113
60.548
60.449
59.9215
59.8500
59.8918
59.9655
60.255
60.189
59.9601
59.9213
59.9283
59.9882
60.352
59.9252
59.8340
59.8755
59.9617
60.102
59.9841
59.9125
59.8932
59.9172
59.9584
60.3
59.9180
59.8246
59.8217
59.8876
59.9693
59.9997
59.9319
59.9014
59.9333
59.9952
60.372
59.9462
59.8476
59.8656
59.9369
60.2
60.417
59.9989
59.9600
59.9608
60.145
60.964
60.401
59.9230
59.9271
60.130
60.786
60.926
60.256
59.9806
59.9881
60.268
60.863
60.513
59.9391
59.9080
59.9684
60.492
60.1042
60.469
59.9980
60.60
60.553
60.1064
60.590
59.9332
59.9048
59.9679
60.308
60.765
60.404
59.9761
59.9573
59.9834
60.523
60.533
59.9286
59.8797
59.9460
60.219
60.580
59.9969
59.9357
59.9389
59.9705
60.222
60.386
59.9317
59.8595
59.8905
59.9706
60.571
60.423
59.9725
59.9603
60.42
60.585
60.614
59.9517
59.8956
59.9370
60.27
60.687
60.821
60.286
59.9966
60.156
60.897
60.1386
60.325
59.9496
59.9954
60.788
60.1262
60.1057
60.362
60.139
60.354
60.823
60.1310
60.591
59.9652
59.9685
60.365
60.1133
60.1250
60.510
60.227
60.508
60.1011
60.1316
60.279
59.9221
59.9372
60.163
60.803
60.1065
60.493
60.6
59.9858
60.251
60.952
60.336
59.9207
59.9185
59.9958
60.562
60.609
59.9869
59.9487
59.9622
59.9955
60.453
60.77
59.8981
59.8661
59.9265
60.110
60.735
60.158
59.9542
59.9677
60.227
60.677
60.177
59.9034
59.8938
59.9615
60.326
60.969
60.686
60.55
59.9893
60.298
60.1154
60.1059
59.9817
59.9397
60.148
60.924
60.1305
60.702
60.99
60.87
60.401
60.960
60.1094
60.40
59.9357
59.9762
60.510
60.1234
60.920
60.217
60.194
60.575
60.1022
60.937
59.9701
59.9050
59.9561
60.276
60.863
60.727
60.82
59.9721
59.9834
60.463
60.918
59.9849
59.8960
59.9357
60.209
60.683
60.305
59.9570
59.9389
59.9658
60.129
60.539
59.9744
59.8795
59.8799
59.9487
60.336
60.586
59.9867
59.9545
59.9873
60.449
60.753
59.9763
59.8884
59.9144
59.9873
60.502
60.899
60.415
59.9911
59.9920
60.466
60.1243
60.645
59.9551
59.9662
60.568
60.1208
60.1279
60.518
60.149
60.254
60.656
60.1181
60.756
59.9652
59.9431
60.40
60.838
60.1257
60.647
60.193
60.326
60.776
60.1249
60.696
59.9468
59.9211
59.9830
60.539
60.1015
60.553
59.9959
59.9792
60.80
60.790
60.674
59.9373
59.8938
59.9640
60.368
60.684
60.30
59.9448
59.9454
59.9743
60.233
60.235
59.9112
59.8467
59.8876
59.9697
60.511
60.274
59.9587
59.9506
59.9954
60.482
60.417
59.9257
59.8764
59.9195
59.9874
60.529
60.562
59.9968
59.9631
59.9847
60.580
60.1079
60.9
59.9229
59.9717
60.558
60.1039
60.785
60.113
59.9889
60.87
60.572
60.978
60.120
59.9190
59.9316
60.36
60.759
60.825
60.171
59.9928
60.207
60.700
60.1005
59.9982
59.8970
59.9110
59.9803
60.354
60.602
60.68
59.9564
59.9442
59.9825
60.592
60.29
59.8828
59.8844
59.9695
60.318
60.296
59.9493
59.9073
59.9215
59.9603
60.110
59.9769
59.8642
59.8318
59.8887
59.9705
60.290
59.9762
59.9303
59.9489
60.8
60.483
59.9992
59.8852
59.8692
59.9361
59.9991
60.600
60.340
59.9776
59.9614
60.5
60.797
60.776
59.9530
59.9186
59.9986
60.739
60.1130
60.571
60.11
59.9993
60.222
60.720
60.816
59.9713
59.9087
59.9538
60.337
60.1025
60.695
60.61
60.48
60.467
60.985
60.891
59.9611
59.8922
59.9401
60.176
60.759
60.627
59.9922
59.9578
59.9765
60.374
60.777
59.9710
59.8830
59.9227
60.41
60.533
60.167
59.9478
59.9361
59.9605
59.9984
60.341
59.9529
59.8633
59.8709
59.9412
60.271
60.489
59.9779
59.9493
59.9769
60.290
60.612
59.9682
59.8792
59.9046
59.9758
60.401
60.785
60.291
59.9795
59.9826
60.433
60.1212
60.562
59.9404
59.9536
60.440
60.1031
60.1121
60.393
60.38
60.149
60.504
60.1099
60.752
59.9628
59.9328
59.9910
60.652
60.1100
60.507
60.65
60.194
60.632
60.1098
60.538
59.9331
59.9104
59.9736
60.359
60.795
60.439
59.9865
59.9626
59.9882
60.587
60.585
59.9333
59.8861
59.9540
60.269
60.574
59.9937
59.9377
59.9422
59.9683
60.175
60.208
59.9118
59.8444
59.8774
59.9565
60.406
60.171
59.9471
59.9426
59.9874
60.434
60.399
59.9265
59.8723
59.9280
59.9979
60.563
60.547
60.23
59.9758
59.9947
60.670
60.1122
60.54
59.9252
59.9737
60.590
60.1107
60.900
60.224
59.9975
60.127
60.617
60.1038
60.256
59.9320
59.9396
60.78
60.887
60.972
60.267
60.32
60.322
60.816
60.1128
60.74
59.9050
59.9145
59.9865
60.474
60.697
60.87
59.9591
59.9591
60.27
60.718
60.50
59.8838
59.8848
59.9669
60.339
60.322
59.9506
59.9166
59.9368
59.9743
60.216
59.9825
59.8759
59.8383
59.8956
59.9791
60.400
59.9829
59.9339
59.9530
60.75
60.569
60.57
59.8933
59.8764
59.9427
60.74
60.642
60.366
59.9826
59.9674
60.65
60.875
60.899
59.9669
59.9295
60.71
60.833
60.1199
60.601
60.15
59.9970
60.358
60.939
60.990
59.9879
59.9189
59.9661
60.482
60.1154
60.822
60.150
60.148
60.577
60.1107
60.996
59.9698
59.9021
59.9488
60.237
60.824
60.723
60.129
59.9786
59.9902
60.470
60.876
59.9777
59.8913
59.9309
60.108
60.599
60.247
59.9528
59.9413
59.9659
60.48
60.387
59.9585
59.8630
59.8725
59.9401
60.228
60.415
59.9663
59.9359
59.9714
60.276
60.619
59.9722
59.8862
59.9085
59.9806
60.377
60.653
60.219
59.9807
59.9839
60.378
60.1168
60.498
59.9282
59.9370
60.297
60.946
60.1030
60.330
59.9983
60.98
60.452
60.974
60.556
59.9431
59.9210
59.9837
60.600
60.1013
60.435
59.9980
60.137
60.610
60.1025
60.481
59.9224
59.8930
59.9598
60.258
60.722
60.337
59.9766
59.9544
59.9733
60.393
60.379
59.9165
59.8730
59.9388
60.99
60.387
59.9761
59.9162
59.9159
59.9531
60.59
60.65
59.9007
59.8361
59.8735
59.9467
60.259
60.35
59.9315
59.9272
59.9707
60.232
60.219
59.9123
59.8611
59.9089
59.9756
60.350
60.370
59.9830
59.9548
59.9758
60.485
60.987
59.9858
59.9006
59.9509
60.377
60.881
60.665
59.9987
59.9792
59.9969
60.391
60.848
60.21
59.9108
59.9259
59.9888
60.578
60.716
60.76
59.9786
60.83
60.594
60.927
59.9865
59.8786
59.8983
59.9705
60.310
60.580
59.9986
59.9462
59.9383
59.9811
60.482
59.9843
59.8613
59.8653
59.9535
60.177
60.195
59.9427
59.9033
59.9191
59.9603
60.78
59.9726
59.8610
59.8256
59.8816
59.9631
60.238
59.9724
59.9179
59.9332
59.9859
60.337
59.9890
59.8780
59.8631
59.9229
59.9876
60.474
60.162
59.9593
59.9444
59.9847
60.673
60.712
59.9435
59.9039
59.9847
60.632
60.1004
60.443
59.9838
59.9787
60.98
60.611
60.731
59.9704
59.9017
59.9399
60.155
60.871
60.578
59.9933
59.9851
60.219
60.746
60.705
59.9510
59.8854
59.9299
59.9989
60.521
60.390
59.9688
59.9296
59.9392
60.28
60.470
59.9463
59.8586
59.8939
59.9789
60.274
59.9999
59.9260
59.9049
59.9261
59.9654
60.29
59.9290
59.8339
59.8326
59.8980
59.9854
60.150
59.9442
59.9047
59.9368
59.9921
60.257
59.9426
59.8526
59.8672
59.9396
60.25
60.362
59.9939
59.9547
59.9593
60.64
60.808
60.263
59.9082
59.9077
59.9927
60.612
60.744
60.83
59.9737
59.9821
60.194
60.703
60.380
59.9242
59.8832
59.9383
60.191
60.761
60.255
59.9774
59.9872
60.293
60.714
60.246
59.9039
59.8759
59.9400
60.57
60.568
60.132
59.9534
59.9325
59.9516
60.153
60.249
59.8987
59.8412
59.9082
59.9871
60.241
59.9676
59.9057
59.9030
59.9333
59.9824
59.9978
59.8907
59.8190
59.8486
59.9232
60.67
59.9937
59.9200
59.9052
59.9483
60.56
60.179
59.9122
59.8465
59.8904
59.9586
60.219
60.311
59.9767
59.9450
59.9624
60.294
60.843
59.9873
59.8944
59.9328
60.201
60.743
60.593
59.9970
59.9705
59.9805
60.281
60.845
60.156
59.9098
59.9033
59.9739
60.544
60.719
60.14
59.9713
59.9969
60.453
60.813
59.9930
59.8824
59.8880
59.9631
60.286
60.596
60.52
59.9443
59.9285
59.9677
60.431
59.9976
59.8796
59.8658
59.9401
60.33
60.150
59.9383
59.8986
59.9068
59.9428
59.9972
59.9762
59.8598
59.8081
59.8558
59.9391
60.114
59.9697
59.9173
59.9228
59.9712
60.187
59.9919
59.8755
59.8489
59.9108
59.9737
60.349
60.181
59.9620
59.9420
59.9713
60.490
60.656
59.9477
59.8926
59.9610
60.405
60.825
60.328
59.9705
59.9605
59.9875
60.386
60.651
59.9665
59.8856
59.9131
59.9883
60.595
60.481
59.9848
59.9695
59.9968
60.482
60.555
59.9334
59.8535
59.8854
59.9562
60.148
60.177
59.9509
59.9060
59.9086
59.9624
60.279
59.9363
59.8298
59.8528
59.9347
59.9892
59.9788
59.9002
59.8679
59.8929
59.9364
59.9787
59.9159
59.8092
59.7907
59.8571
59.9449
59.9895
59.9215
59.8771
59.9047
59.9602
59.9972
59.9236
59.8175
59.8179
59.8893
59.9572
60.91
59.9679
59.9125
59.9059
59.9571
60.381
60.111
59.8875
59.8681
59.9515
60.213
60.507
59.9836
59.9312
59.9347
59.9652
60.256
60.166
59.8987
59.8412
59.8900
59.9675
60.351
59.9931
59.9370
59.9390
59.9794
60.289
60.19
59.8748
59.8220
59.8753
59.9418
59.9969
59.9717
59.9031
59.8715
59.8874
59.9530
59.9891
59.8758
59.7962
59.8471
59.9305
59.9718
59.9239
59.8471
59.8394
59.8672
59.9138
59.9419
59.8528
59.7656
59.7805
59.8589
59.9430
59.9516
59.8785
59.8557
59.8934
59.9497
59.9735
59.8742
59.7861
59.8082
59.8787
59.9416
59.9776
59.9247
59.8841
59.8964
59.9571
60.280
59.9556
59.8509
59.8737
59.9668
60.217
60.222
59.9463
59.9042
59.9148
59.9617
60.245
59.9825
59.8724
59.8475
59.9096
59.9882
60.313
59.9703
59.9244
59.9474
59.9953
60.354
59.9700
59.8439
59.8202
59.8853
59.9513
60.51
59.9625
59.8990
59.8818
59.9103
59.9853
59.9784
59.8534
59.8019
59.8711
59.9465
59.9770
59.9093
59.8551
59.8587
59.8899
59.9391
59.9487
59.8379
59.7689
59.8041
59.8839
59.9666
59.9459
59.8766
59.8728
59.9096
59.9655
59.9699
59.8563
59.7970
59.8476
59.9177
59.9780
59.9788
59.9203
59.8962
59.9187
59.9928
60.447
59.9385
59.8536
59.9028
59.9892
60.371
60.76
59.9403
59.9199
59.9409
59.9875
60.349
59.9661
59.8834
59.9076
59.9893
60.818
60.1057
60.478
60.302
60.701
60.1251
60.1609
60.675
59.9611
59.9820
60.711
60.1478
60.1842
60.1314
60.892
60.897
60.1431
60.2245
60.1724
60.579
60.666
60.1645
60.2382
60.2450
60.1698
60.1468
60.1771
60.2361
60.3123
60.2802
60.1772
60.1715
60.2594
60.3665
60.4267
60.3724
60.3448
60.3914
60.4709
60.5401
60.4853
60.3939
60.4295
60.5269
60.6182
60.6877
60.6626
60.6467
60.6824
60.7648
60.8754
60.8343
60.7354
60.7862
60.9178
61.201
61.517
60.9958
61.35
61.614
61.1413
61.2389
61.1952
61.1238
61.1769
61.2939
61.4122
61.4494
61.4051
61.4393
61.5242
61.6194
61.6889
61.5979
61.5658
61.6662
61.7903
61.9120
61.9359
61.9160
61.9473
62.176
62.1452
62.1976
62.1098
62.1327
62.2757
62.4071
62.4764
62.4319
62.4603
62.5556
62.6595
62.7768
62.7468
62.7030
62.7889
62.9316
63.880
63.1284
63.1133
63.1888
63.3031
63.4335
63.4713
63.4055
63.4703
63.6227
63.7701
63.8903
63.8976
63.9359
64.281
64.1739
64.2993
64.2466
64.2684
64.4360
64.6053
64.7190
64.7080
64.7576
64.8616
64.9852
65.1246
65.1023
65.1135
65.2388
65.4133
65.5711
65.5832
65.6323
65.7571
65.9031
66.256
65.9676
65.9913
66.1507
66.3236
66.4693
66.4942
66.5482
66.6416
66.8055
66.9520
66.9162
66.9631
67.1471
67.3403
67.4411
67.4387
67.5412
67.6825
67.8493
67.9222
67.9032
68.50
68.1798
68.3882
68.4637
68.5115
68.6425
68.8068
68.9660
68.9472
69.30
69.1830
69.3787
69.5459
69.5962
69.6881
69.8239
70.372
70.1140
70.1157
70.2809
70.4992
70.6766
70.7159
70.8116
70.9517
71.1346
71.2609
71.2686
71.3822
71.5795
71.8053
71.8840
71.9790
72.1306
72.3148
72.4232
72.4125
72.5510
72.7612
72.9779
73.684
73.1634
73.2860
73.4916
73.6216
73.6358
73.8026
74.275
74.2141
74.2623
74.3948
74.5558
74.7654
74.8521
74.9065
75.651
75.3023
75.4868
75.5742
75.7275
75.9169
76.984
76.1181
76.2570
76.4630
76.6974
76.8283
76.9568
77.1082
77.3469
77.4452
77.5157
77.7363
77.9905
78.1343
78.2411
78.3959
78.5967
78.7714
78.8335
78.9980
79.2351
79.4431
79.5523
79.7241
79.9355
80.1028
80.1322
80.2999
80.5381
80.7740
80.9048
81.454
81.2326
81.4400
81.5002
81.6779
81.9335
82.1297
82.2410
82.4132
82.6164
82.8049
82.8881
83.616
83.3182
83.5246
83.6603
83.8489
84.820
84.1936
84.3060
84.5226
84.7922
84.9765
85.1377
85.3215
85.5782
85.6621
85.8360
86.1056
86.3372
86.4748
86.6455
86.8693
87.551
87.1790
87.3890
87.6677
87.8339
88.190
88.2373
88.4497
88.5267
88.7166
88.9911
89.2199
89.3885
89.5560
89.8112
89.9295
90.1134
90.3845
90.6019
90.7558
90.9498
91.2036
91.3528
91.5068
91.7482
92.163
92.1968
92.4013
92.6516
92.7608
92.9357
93.1923
93.4714
93.6763
93.8624
94.1327
94.2653
94.4653
94.7542
94.9834
95.1823
95.3826
95.6385
95.7891
95.9927
96.2814
96.5000
96.7198
96.9660
97.1559
97.2908
97.5344
97.8391
98.647
98.2496
98.5004
98.6558
98.8670
99.1618
99.3769
99.5871
99.8119
100.517
100.2083
100.4369
100.7366
100.9501
101.1762
101.4312
101.5671
101.7813
102.767
102.3477
102.5742
102.8265
103.165
103.2148
103.5204
103.7792
104.14
104.2307
104.4784
104.6685
104.9291
105.2153
105.4557
105.7109
105.9376
106.902
106.3447
106.6675
106.9238
107.1326
107.3779
107.5520
107.8355
108.1200
108.3442
108.5724
108.8343
109.201
109.2703
109.5734
109.8160
110.622
110.2769
110.4653
110.7427
111.558
111.3134
111.5674
111.7838
112.56
112.3293
112.5955
112.8352
113.1114
113.3336
113.5744
113.8859
114.1463
114.4153
114.6725
114.8463
115.1138
115.4456
115.7282
115.9740
116.1831
116.4173
116.7401
116.9930
117.2357
117.5127
117.7241
117.9781
118.2868
118.5532
118.8261
119.222
119.2488
119.5616
119.8707
120.1263
120.3899
120.5917
120.9071
121.2121
121.4826
121.7678
122.10
122.2653
122.5804
122.8729
123.1716
123.3799
123.6112
123.9487
124.2710
124.5308
124.7764
125.195
125.3476
125.6242
125.8863
126.1589
126.3820
126.6758
126.9779
127.2606
127.5163
127.7188
128.91
128.3441
128.6230
128.8986
129.1161
129.4419
129.7544
130.263
130.3116
130.5620
130.8774
131.1921
131.5008
131.7700
131.9865
132.3124
132.6648
132.9459
133.2074
133.4660
133.8022
134.1039
134.3866
134.6464
134.8961
135.2252
135.5342
135.8262
136.287
136.2919
136.6441
136.9547
137.2407
137.4639
137.7928
138.1169
138.4031
138.6889
138.9553
139.2885
139.6187
139.9410
140.1654
140.4383
140.8111
141.1371
141.4241
141.6770
142.246
142.3494
142.6481
142.9130
143.1829
143.5194
143.8370
144.1210
144.3457
144.6558
145.100
145.3124
145.5527
145.8523
146.1962
146.5096
146.8052
147.698
147.3920
147.7388
148.694
148.3043
148.5945
148.9714
149.2859
149.5542
149.8632
150.2129
150.5313
150.8229
151.786
151.3954
151.7420
152.400
152.2801
152.5497
152.9181
153.1669
153.1728
154.382
154.2188
154.5202
154.5959
154.7117
155.904
155.1581
155.5943
155.4373
155.9501
155.7915
156.3094
155.9653
156.5329
156.3300
156.8652
156.5165
156.9242
156.7670
157.1198
157.19
157.1707
157.2216
157.2415
157.3816
157.2397
157.5713
157.4061
157.7463
157.3557
157.7828
157.4720
157.9508
157.4870
157.9223
157.6056
158.27
157.6587
157.9788
157.8505
158.252
157.9450
157.9166
158.221
157.9215
158.1055
157.7893
158.1152
157.7984
158.1725
157.7016
158.1571
157.7709
158.2006
157.7446
158.1136
157.8235
158.1616
157.9167
158.217
158.164
158.434
158.757
157.9166
158.1621
157.9289
158.2254
157.7977
158.1878
157.7972
158.2265
157.6927
158.1063
157.7266
158.987
157.7061
157.9810
157.8605
158.150
157.9187
157.8234
157.9531
157.8213
158.527
157.7299
158.712
157.6849
158.737
157.5682
158.513
157.6799
158.1233
157.6181
157.9478
157.6636
157.9146
157.7248
157.7652
157.7935
157.7328
157.8224
157.5422
157.8690
157.5604
157.9177
157.4074
157.8448
157.4275
157.9096
157.4046
157.8151
157.4698
157.7730
157.4889
157.6407
157.6396
157.6986
157.7141
157.4985
157.7189
157.4348
157.7603
157.2853
157.7120
157.2613
157.7103
157.1577
157.6231
157.2904
157.6853
157.2989
157.4941
157.3854
157.4668
157.4867
157.3253
157.5497
157.3125
157.5905
157.1556
157.6125
157.2204
157.6724
157.837
157.5284
157.1095
157.5267
157.1286
157.3652
157.2309
157.3205
157.2604
157.1259
157.3613
157.1917
157.4418
156.9882
157.3904
156.9481
157.4452
156.8852
157.3644
156.9523
157.3536
156.9339
157.2212
157.1113
157.2802
157.1821
157.494
157.2101
157.31
157.2754
156.8337
157.2459
156.7844
157.2418
156.6473
157.1601
156.7638
157.1871
156.7740
157.104
156.8787
156.9954
156.9860
156.8398
157.664
156.8320
157.1104
156.6322
157.1242
156.7319
157.2089
156.5958
157.604
156.6216
157.553
156.6462
156.8794
156.7600
156.8144
156.8031
156.6246
156.9016
156.6263
156.9619
156.4423
156.9163
156.4320
156.9642
156.3830
156.8630
156.4811
156.8425
156.5109
156.6858
156.6855
156.7075
156.7623
156.4620
156.7768
156.4247
156.8312
156.2597
156.7628
156.2566
156.7536
156.1590
156.6229
156.3425
156.6512
156.3984
156.4261
156.4896
156.4026
156.6015
156.2319
156.6323
156.2135
156.6640
156.582
156.6312
156.1647
156.6671
156.1212
156.4691
156.2418
156.4395
156.3185
156.2430
156.3974
156.1653
156.4388
155.9689
156.4685
156.131
156.4943
155.8448
156.3551
155.9049
156.3657
155.9609
156.1640
156.1071
156.1395
156.1566
155.8932
156.2569
155.9497
156.3323
155.7041
156.2321
155.7160
156.2573
155.6623
156.1000
155.7713
156.442
155.8093
155.8486
155.9796
155.8723
156.532
155.5941
156.349
155.5876
156.1191
155.4791
156.215
155.5576
156.93
155.5513
155.8565
155.7686
155.8763
155.8460
155.6283
155.8959
155.5914
155.9603
155.3779
155.8956
155.3750
155.8955
155.2677
155.7514
155.4729
155.7816
155.5406
155.5612
155.6459
155.5333
155.7660
155.3423
155.7873
155.3242
155.8159
155.1670
155.7493
155.3164
155.7892
155.3319
155.5797
155.4634
155.5457
155.5540
155.2950
155.6078
155.2303
155.6434
155.398
155.6242
155.1494
155.6686
155.785
155.5009
155.2060
155.4736
155.3394
155.2900
155.4634
155.2443
155.5217
155.711
155.5853
155.1315
155.6410
154.9560
155.4624
155.392
155.4561
155.1222
155.2768
155.2513
155.2043
155.3082
154.9232
155.3827
154.9948
155.4567
154.8207
155.3630
154.8724
155.4032
154.9055
155.2133
155.823
155.1741
155.1528
154.9863
155.2973
155.168
155.3780
154.7486
155.2878
154.7678
155.3172
154.7372
155.1789
154.8580
155.972
154.9221
154.8624
155.844
154.8968
155.1750
154.6682
155.1551
154.6377
155.2061
154.5891
155.1062
154.7184
155.958
154.7723
154.8725
154.9707
154.8956
155.651
154.6541
155.785
154.6118
155.1229
154.4585
154.9962
154.5379
154.9905
154.5532
154.7629
154.7667
154.7903
154.8664
154.5569
154.9149
154.5055
154.9985
154.3725
154.9389
154.4553
154.9523
154.4315
154.7781
154.6610
154.7926
154.7655
154.5545
154.8294
154.4658
154.8865
154.2912
154.8372
154.3293
154.8471
154.2258
154.6355
154.4756
154.6889
154.5694
154.4159
154.6541
154.3708
154.7723
154.2524
154.7792
154.2425
154.7679
154.1580
154.6575
154.3817
154.7028
154.4775
154.3809
154.5711
154.3669
154.6706
154.1339
154.6427
154.1223
154.6565
154.142
154.5389
154.2127
154.5392
154.3011
154.3292
154.4282
154.2490
154.5486
154.898
154.5852
154.1030
154.6157
153.9423
154.4999
154.1453
154.5592
154.2179
154.2503
154.3443
154.2355
154.4482
153.9754
154.4458
153.9576
154.4806
153.8014
154.3626
153.9774
154.3852
154.572
154.1567
154.1929
154.941
154.3292
153.9451
154.3871
153.8780
154.3927
153.7741
154.3603
153.9121
154.3372
153.9865
154.1272
154.1234
154.233
154.2162
153.8377
154.2597
153.7474
154.2620
153.6172
154.1970
153.7579
154.1764
153.8335
153.9853
153.9819
153.8899
154.1142
153.7456
154.1862
153.6888
154.1960
153.5648
154.1547
153.7120
154.1466
153.7824
153.9261
153.9253
153.8232
154.245
153.6442
154.722
153.5488
154.724
153.4295
154.100
153.5812
153.9888
153.6642
153.7976
153.8215
153.7111
153.9567
153.5567
154.168
153.5070
154.326
153.3994
153.9765
153.5566
153.9721
153.6557
153.7337
153.7904
153.6682
153.8944
153.4246
153.9070
153.4264
153.9489
153.2432
153.8032
153.4659
153.8681
153.5442
153.5632
153.6865
153.5567
153.8310
153.3469
153.8551
153.3535
153.8832
153.2416
153.7940
153.4287
153.7718
153.5361
153.5513
153.6677
153.4346
153.7502
153.2319
153.7528
153.2274
153.7665
153.1013
153.6074
153.3434
153.6598
153.4506
153.3479
153.5652
153.3287
153.7046
153.1567
153.7007
153.1630
153.7018
153.1114
153.6011
153.3478
153.5608
153.4597
153.3116
153.5612
153.2448
153.6458
153.253
153.5892
153.823
153.6076
153.65
153.4120
153.2629
153.3953
153.3800
153.1675
153.4718
153.744
153.5669
152.9471
153.5262
153.295
153.5311
153.169
153.3341
153.2777
153.3727
153.4001
153.622
153.4430
152.9878
153.4993
152.8500
153.4129
152.9198
153.3834
152.9673
153.1467
153.1973
153.1719
153.3145
152.8948
153.3467
152.8453
153.4183
152.7755
153.3233
152.9113
153.3003
152.9922
153.635
153.2122
153.981
153.3340
152.8145
153.3160
152.7651
153.3351
152.7014
153.1844
152.8603
153.1516
152.9513
152.8737
153.1335
152.8652
153.2326
152.6505
153.2010
152.6612
153.2423
152.6644
153.700
152.8937
153.458
152.9925
152.8053
153.1509
152.7772
153.2332
152.5817
153.1491
152.6271
153.1517
152.6594
152.9391
152.8556
152.8237
152.9425
152.5618
153.448
152.6401
153.1347
152.4374
152.9904
152.5321
152.9786
152.6835
152.7790
152.8725
152.7489
152.9698
152.4740
153.237
152.5207
153.782
152.4187
152.8990
152.5632
152.8770
152.6927
152.6104
152.8285
152.4971
152.8873
152.2680
152.8796
152.3979
152.9360
152.3550
152.7210
152.5439
152.6516
152.7133
152.4339
152.8233
152.4138
152.8863
152.2187
152.8334
152.3634
152.8537
152.4395
152.5892
152.6049
152.5051
152.7187
152.2605
152.7513
152.2562
152.7866
152.927
152.6462
152.3106
152.6316
152.4396
152.3639
152.5713
152.2994
152.7053
152.1280
152.6997
152.1779
152.7146
152.1233
152.5446
152.3912
152.5116
152.5222
152.2252
152.5991
152.1707
152.6670
151.9984
152.5706
152.868
152.5516
152.1356
152.3058
152.3812
152.2747
152.5008
152.59
152.5163
151.9940
152.5876
151.9452
152.4536
152.1432
152.4394
152.2490
152.1796
152.4450
152.1495
152.5486
151.9132
152.4863
151.9310
152.4813
151.9665
152.2819
152.1755
152.2074
152.2757
151.9149
152.3915
151.9813
152.4828
151.7899
152.3463
151.8911
152.3316
152.592
152.1189
152.2557
152.420
152.3496
151.8057
152.3999
151.9020
152.4629
151.8187
152.2463
152.3
152.2026
152.1395
151.9320
152.2547
151.8463
152.3144
151.6479
152.2658
151.7773
152.2640
151.8620
152.294
152.500
151.9600
152.2081
151.7508
152.2704
151.7681
152.3089
151.6346
152.1769
151.8786
152.2092
152.157
151.9049
152.1417
151.8183
152.2361
151.6166
152.1856
151.6327
152.1544
151.6438
151.9580
151.9207
151.9165
152.469
151.6387
152.1031
151.6039
152.1862
151.5170
152.688
151.6940
152.294
151.8097
151.7879
152.234
151.7968
152.1445
151.5150
152.845
151.5420
152.1067
151.5387
151.8816
151.7581
151.8211
151.8682
151.5038
151.9832
151.5731
152.780
151.3769
151.9336
151.4918
151.9279
151.6672
151.7131
151.8625
151.6242
151.9525
151.3987
152.8
151.4619
152.276
151.4326
151.8113
151.6336
151.7259
151.7781
151.4807
151.8746
151.3930
151.9131
151.2290
151.8342
151.4027
151.8157
151.5292
151.5696
151.6994
151.4796
151.8459
151.2971
151.8655
151.3084
151.8612
151.2803
151.7143
151.5589
151.6665
151.7024
151.3797
151.7778
151.3010
151.8400
151.1724
151.7373
151.2710
151.6668
151.3738
151.4279
151.6080
151.3923
151.7225
151.1487
151.7073
151.1514
151.7400
151.1775
151.5706
151.4231
151.4962
151.5455
151.2220
151.6860
151.2560
151.7769
151.658
151.6172
151.1797
151.5802
151.3226
151.2983
151.4977
151.2199
151.5844
150.9456
151.5770
151.720
151.6174
151.737
151.3732
151.2956
151.3214
151.4765
151.881
151.5663
151.639
151.6082
150.9305
151.5135
151.1581
151.4981
151.3041
151.2088
151.4415
151.1170
151.5465
150.9310
151.5054
150.9553
151.4743
150.9784
151.2290
151.2579
151.2331
151.3947
150.8971
151.4208
150.9011
151.5035
150.8475
151.3544
151.809
151.2948
151.2067
151.424
151.3996
151.290
151.4953
150.8147
151.4013
150.8781
151.3787
150.9894
151.1436
151.1918
151.313
151.2953
150.7257
151.3330
150.8303
151.3934
150.7556
151.1669
150.9930
151.1289
151.1791
150.8855
151.3020
150.8442
151.3605
150.6843
151.3013
150.8688
151.2962
151.52
151.50
151.1672
150.8992
151.2791
150.6575
151.2478
150.6963
151.2346
150.7002
151.206
150.9936
150.9951
151.1405
150.7302
151.1956
150.6767
151.2745
150.6098
151.1391
150.8304
151.854
150.9579
150.8107
151.1641
150.8093
151.2693
150.5795
151.1690
150.6503
151.1573
150.7695
150.9225
150.9739
150.8123
151.812
150.5006
151.1167
150.6070
151.1762
150.5599
150.9590
150.7878
150.9094
150.9826
150.6857
151.1054
150.6393
151.1595
150.4560
151.627
150.6855
151.717
150.8281
150.7439
150.9775
150.6665
151.923
150.4716
151.534
150.5037
151.226
150.5316
150.7586
150.8219
150.7590
150.9633
150.4509
150.9847
150.4476
151.617
150.4361
150.9229
150.6681
150.8412
150.8017
150.5376
150.9745
150.5625
151.769
150.3659
150.9406
150.4770
150.9078
150.6278
150.6404
150.8145
150.5278
150.9056
150.2610
150.9009
150.3826
150.9292
150.4253
150.7095
150.6491
150.6281
150.8325
150.3574
150.8938
150.3678
150.9358
150.2783
150.8037
150.5553
150.7804
150.7160
150.4792
150.8250
150.3688
150.8997
150.2098
150.7964
150.3361
150.7464
150.4513
150.4809
150.6936
150.4531
150.8185
150.1719
150.7705
150.2266
150.8108
150.3232
150.6285
150.5807
150.5411
150.7039
150.2230
150.8005
150.2939
150.8741
150.1991
150.6740
150.4050
150.6173
150.5687
150.2926
150.6861
150.2250
150.7485
150.492
150.6677
150.2487
150.6624
150.3886
150.3420
150.5674
150.2812
150.7208
150.1010
150.7071
150.1732
150.7015
150.2161
150.4618
150.5088
150.4400
150.6591
150.1399
150.6758
150.1299
150.7180
150.649
150.5017
150.3160
150.4228
150.4437
150.1422
150.6004
150.1591
150.6907
149.9652
150.5255
150.1491
150.5175
150.3500
150.2909
150.5490
150.2216
150.6427
149.9596
150.6159
150.1272
150.6439
150.2216
150.3777
150.4276
150.2858
150.5659
149.9864
150.5633
150.80
150.5752
149.9758
150.3864
150.2818
150.3368
150.4365
150.252
150.5097
150.23
150.6038
149.9331
150.4740
150.1601
150.4010
150.3009
150.1318
150.5004
150.1294
150.6172
149.9056
150.4941
149.9985
150.4478
150.1533
150.2103
150.3553
150.954
150.4571
149.7992
150.4434
149.9351
150.4867
149.9830
150.2561
150.2122
150.1343
150.3976
149.9183
150.4641
149.9290
150.4991
149.8406
150.3245
150.1566
150.3099
150.3182
149.9895
150.4108
149.9316
150.4886
149.7637
150.3224
149.9540
150.2730
150.906
149.9705
150.3028
149.9470
150.4121
149.7327
150.3351
149.8218
150.3401
149.9836
150.688
150.2224
150.34
150.3358
149.7580
150.3782
149.8293
150.3993
149.8523
150.1407
150.796
150.633
150.2346
149.7401
150.2741
149.7277
150.3060
149.6327
150.1239
149.9432
150.924
150.1019
149.7900
150.2115
149.7372
150.3143
149.6085
150.1833
149.8278
150.1451
149.9700
149.8745
150.1959
149.8363
150.3087
149.6229
150.2203
149.6923
150.1819
149.8350
149.9040
150.526
149.8177
150.1652
149.5133
150.1597
149.6455
150.2050
149.6966
149.9795
149.9341
149.8532
150.1256
149.6484
150.1964
149.6596
150.2272
149.5715
150.361
149.8967
150.265
150.670
149.7175
150.1507
149.6088
150.1964
149.5337
150.836
149.7114
149.9654
149.8541
149.6685
150.579
149.6889
150.1662
149.4310
150.295
149.5782
150.393
149.7739
149.7800
149.9957
149.6875
150.993
149.4811
150.1209
149.5854
150.1226
149.6673
149.8330
149.8865
149.7633
150.377
149.4495
150.357
149.4833
150.550
149.4501
149.8107
149.7761
149.7926
149.9384
149.5064
150.63
149.4381
150.639
149.4348
149.9415
149.6854
149.8558
149.8358
149.5492
150.143
149.5798
150.1173
149.3743
149.9362
149.5552
149.8957
149.7328
149.5987
149.9018
149.4919
149.9825
149.2843
149.9277
149.4625
149.9099
149.6006
149.6488
149.8070
149.5356
149.9651
149.3383
149.9539
149.4261
149.9565
149.4714
149.6832
149.7736
149.6809
149.9336
149.3430
149.9174
149.3404
149.9403
149.3633
149.7201
149.6167
149.5916
149.7487
149.3041
149.8630
149.3275
149.9069
149.2583
149.7419
149.4840
149.6313
149.6960
149.4120
149.8424
149.3426
149.8923
149.1843
149.7840
149.4493
149.7861
149.6186
149.4064
149.7578
149.3662
149.8714
149.1413
149.7388
149.2911
149.7122
149.4265
149.3789
149.6726
149.3865
149.8072
149.1115
149.7322
149.2050
149.7411
149.3724
149.5021
149.6254
149.4038
149.7472
149.1630
149.7985
149.2356
149.8056
149.2938
149.5766
149.5222
149.4138
149.6810
149.2006
149.7348
149.1272
149.7059
149.1055
149.5452
149.4250
149.4649
149.5894
149.1755
149.6700
149.1165
149.7382
149.881
149.5985
149.3524
149.5267
149.5056
149.2089
149.6834
149.2508
149.7912
149.401
149.5954
149.2367
149.5702
149.4191
149.2252
149.5798
149.1852
149.6744
148.9193
149.5590
149.1621
149.5962
149.3136
149.2306
149.5015
149.2097
149.6721
148.9693
149.5996
149.1165
149.6101
149.2170
149.3079
149.5041
149.3119
149.6590
148.9915
149.6007
149.425
149.6086
149.1286
149.3342
149.3802
149.2513
149.5117
148.9104
149.5471
149.351
149.6132
149.176
149.3331
149.2812
149.2947
149.4937
148.9991
149.5567
149.240
149.6030
148.9396
149.4075
149.2711
149.3976
149.4507
149.389
149.5243
148.9982
149.5902
148.8889
149.4035
149.1348
149.3359
149.2863
148.9801
149.4557
149.354
149.5685
148.8170
149.3836
149.284
149.3894
149.2471
149.675
149.4374
149.535
149.5367
148.7964
149.4437
149.361
149.4849
149.1968
149.1063
149.3720
149.542
149.5057
148.7989
149.4162
148.9227
149.4089
149.252
149.830
149.3031
149.828
149.4514
148.7843
149.4004
148.8524
149.4199
148.9993
149.1865
149.2681
149.924
149.3958
148.8194
149.4551
148.9040
149.4784
148.9315
149.2227
149.1769
149.782
149.3362
148.8454
149.3893
148.7748
149.3613
148.7723
149.1831
149.1019
149.1028
149.2617
148.8068
149.3374
148.7662
149.3946
148.7607
149.2249
149.488
149.1408
149.2059
148.8316
149.3578
148.8652
149.4423
148.7210
149.2304
148.9569
149.1749
149.1380
148.8357
149.2680
148.8015
149.3407
148.5852
149.1812
148.8798
149.1839
149.565
148.8436
149.2034
148.7457
149.3223
148.6556
149.2570
148.8114
149.1445
148.9768
148.9152
149.2280
148.8371
149.3289
148.6287
149.2346
148.7230
149.1622
148.9099
148.8819
149.1209
148.7891
149.2205
148.4986
149.1634
148.7061
149.2097
148.8250
148.8576
149.416
148.7918
149.2240
148.5942
149.2126
148.6532
149.1668
148.7624
148.9700
149.665
148.8664
149.2127
148.6156
149.2093
148.5942
149.1675
148.7056
148.9383
148.9617
148.8186
149.933
148.4941
149.1378
148.6253
149.2022
148.6134
148.9130
148.8916
148.8486
149.981
148.6019
149.1674
148.5845
149.1639
148.5717
149.98
148.9079
148.9197
149.793
148.6210
149.1459
148.5571
149.1638
148.5232
148.9650
148.8005
148.8887
148.9506
148.5210
149.769
148.5856
149.1661
148.4701
148.9643
148.7178
148.8680
148.9460
148.6506
149.972
148.5461
149.1222
148.4455
149.275
148.7476
148.9752
148.9269
148.6266
149.520
148.5866
149.1448
148.4090
148.9737
148.6312
148.9007
148.7916
148.5942
148.9995
148.5518
149.922
148.3894
148.9754
148.5540
148.9093
148.7880
148.6490
148.9937
148.5895
149.894
148.3563
149.85
148.5995
149.362
148.7658
148.6659
148.9482
148.5659
149.651
148.3900
148.9989
148.4779
148.8990
148.6322
148.6128
148.8987
148.6038
149.346
148.3200
148.9479
148.4411
148.9611
148.6301
148.6914
148.8811
148.5818
148.9940
148.3536
149.142
148.4676
148.9885
148.6001
148.6964
148.8228
148.5887
148.9668
148.3162
148.9323
148.3790
148.9111
148.4577
148.6533
148.7689
148.5728
148.9156
148.3032
148.9139
148.3337
148.9245
148.4695
148.6905
148.7534
148.6238
148.8961
148.3020
148.9496
148.4130
148.9959
148.4412
148.7276
148.6995
148.5789
148.8589
148.3098
148.8950
148.3204
148.9006
148.3108
148.6469
148.6530
148.6298
148.8268
148.2998
148.8616
148.2704
148.8996
148.3376
148.7259
148.6355
148.6040
148.7884
148.3057
148.9054
148.3942
148.9826
148.2998
148.7028
148.5760
148.6044
148.7591
148.3282
148.8432
148.2538
148.8481
148.1835
148.6520
148.5345
148.6420
148.7104
148.2744
148.7946
148.2404
148.8720
148.2298
148.7234
148.5116
148.5977
148.6746
148.3000
148.8386
148.3492
148.9267
148.1949
148.6909
148.4489
148.6008
148.6433
148.3130
148.7644
148.2062
148.7917
148.761
148.6319
148.4109
148.6266
148.5865
148.2509
148.7022
148.1773
148.8020
148.1250
148.6744
148.3815
148.5795
148.5495
148.2662
148.7426
148.2936
148.8491
148.1054
148.6566
148.3177
148.5498
148.5157
148.2611
148.6687
148.1880
148.7350
147.9840
148.5883
148.2867
148.5556
148.4750
148.2341
148.6232
148.1445
148.7384
148.267
148.6165
148.2715
148.5748
148.4403
148.2550
148.6650
148.2174
148.7642
148.302
148.6117
148.2121
148.5529
148.4134
148.2220
148.5864
148.1173
148.6623
147.9327
148.5626
148.1898
148.5266
148.3764
148.1862
148.5502
148.1374
148.6964
147.9879
148.5960
148.1734
148.5086
148.3571
148.2250
148.5980
148.2221
148.7220
147.9659
148.5726
148.1335
148.5063
148.3326
148.2125
148.5262
148.1019
148.6136
147.8749
148.5245
148.1155
148.4995
148.3012
148.1929
148.4948
148.844
148.6283
147.9185
148.5435
148.1182
148.5215
148.2794
148.2199
148.5332
148.1454
148.6521
147.9268
148.5428
148.719
148.5044
148.2550
148.1875
148.4673
148.477
148.5527
147.8283
148.4879
148.564
148.4923
148.2305
148.1472
148.4356
148.489
148.5839
147.9028
148.5317
148.510
148.4660
148.2173
148.1811
148.4913
148.1591
148.6264
147.9175
148.5306
148.68
148.4470
148.2024
148.1553
148.4180
148.388
148.5207
147.8104
148.4686
147.9953
148.4339
148.1765
148.1154
148.3835
148.442
148.5480
147.8674
148.4952
147.9872
148.4131
148.1617
148.1440
148.4307
148.1322
148.5765
147.8506
148.4714
147.9496
148.4045
148.1454
148.1112
148.3678
148.247
148.4801
147.7572
148.4178
147.9452
148.3934
148.1261
148.757
148.3359
148.159
148.5094
147.8152
148.4470
147.9425
148.3751
148.1165
148.1109
148.3940
148.971
148.5334
147.8064
148.4327
147.9122
148.3684
148.1044
148.763
148.3282
147.9893
148.4431
147.7236
148.3858
147.9010
148.3468
148.833
148.368
148.2991
147.9794
148.4687
147.7771
148.4081
147.9021
148.3344
148.749
148.619
148.3464
148.431
148.4865
147.7638
148.3869
147.8657
148.3157
148.580
148.182
148.2789
147.9156
148.3867
147.6671
148.3277
147.8563
148.2951
148.368
147.9740
148.2476
147.8808
148.4020
147.7189
148.3496
147.8582
148.2798
148.300
147.9947
148.3018
147.9590
148.4311
147.7087
148.3270
147.8256
148.2693
148.210
147.9579
148.2403
147.8275
148.3315
147.6003
148.2626
147.8365
148.2747
148.116
147.9268
148.2190
147.8166
148.3640
147.6603
148.2932
147.8490
148.2636
148.120
147.9523
148.2728
147.8854
148.3936
147.6593
148.2763
147.8121
148.2175
148.59
147.9085
148.2108
147.7826
148.2950
147.5524
148.2031
147.7994
148.1702
147.9891
147.8377
148.1684
147.7679
148.3220
147.6018
148.2191
147.7937
148.1266
147.9761
147.8319
148.2202
147.8337
148.3466
147.6015
148.1958
147.7610
148.1030
147.9713
147.7915
148.1553
147.6756
148.2259
147.4843
148.1134
147.7724
148.1076
147.9586
147.7487
148.1283
147.6539
148.2520
147.5400
148.1328
147.7874
148.714
147.9702
147.7666
148.1960
147.7314
148.2897
147.5462
148.1191
147.7705
148.251
147.9791
147.7191
148.1411
147.6602
148.2169
147.4705
148.681
147.7839
148.113
147.9786
147.6706
148.1203
147.6085
148.2307
147.5400
148.1017
147.8119
148.122
147.9893
147.6982
148.1902
147.6789
148.2647
147.5425
148.680
147.7975
148.49
148.17
147.6687
148.1313
147.5791
148.1704
147.4595
148.66
147.7982
147.9410
147.9909
147.6034
148.1071
147.5883
148.2113
147.5200
148.326
147.8204
147.9153
148.26
147.6139
148.1633
147.6324
148.2358
147.5457
148.122
147.8088
147.9085
148.74
147.5932
148.1092
147.5175
148.1175
147.4507
147.9225
147.8170
147.8692
148.23
147.5300
148.776
147.5227
148.1587
147.5139
147.9491
147.8360
147.8269
148.68
147.5195
148.1262
147.5898
148.1920
147.5468
147.9264
147.8196
147.8024
148.92
147.4997
148.673
147.4573
148.515
147.4671
147.8220
147.8230
147.7704
148.20
147.4340
148.310
147.4630
148.868
147.5266
147.8455
147.8435
147.7134
147.9992
147.4324
148.807
147.5210
148.1079
147.5678
147.8114
147.8389
147.7151
148.119
147.4128
148.185
147.4169
147.9806
147.5053
147.7169
147.8376
147.6503
147.9966
147.3454
147.9787
147.4233
148.89
147.5742
147.7482
147.8656
147.6234
148.11
147.3508
148.249
147.4791
148.168
147.6196
147.6984
147.8550
147.5869
148.89
147.3270
147.9597
147.4214
147.9206
147.5489
147.6184
147.8535
147.5379
147.9841
147.2845
147.9229
147.4006
147.8930
147.6338
147.6255
147.8854
147.5621
148.111
147.2977
147.9693
147.4917
147.9461
147.6811
147.5987
147.8836
147.4797
148.26
147.2760
147.9000
147.4504
147.8334
147.6244
147.4981
147.8798
147.5000
148.45
147.2655
147.8742
147.4437
147.8118
147.6995
147.5273
147.9088
147.4484
147.9959
147.2658
147.9031
147.5489
147.8927
147.7511
147.5202
147.9051
147.4100
147.9921
147.2689
147.8457
147.5066
147.7209
147.6878
147.3961
147.8868
147.3922
147.9725
147.2520
147.7902
147.5170
147.7440
147.7600
147.4427
147.9178
147.3781
147.9651
147.2675
147.8227
147.6047
147.7559
147.8117
147.3975
147.9044
147.3448
147.9658
147.2843
147.7579
147.5780
147.6637
147.7515
147.3098
147.8880
147.3321
147.9374
147.2868
147.7140
147.5862
147.6075
147.8160
147.3317
147.9126
147.3573
147.9492
147.3167
147.7242
147.6816
147.6945
147.8721
147.3300
147.9086
147.3003
147.9174
147.3485
147.6737
147.6464
147.5252
147.8020
147.2110
147.8647
147.3132
147.8941
147.3667
147.6134
147.6491
147.5341
147.8599
147.2608
147.8858
147.3026
147.8621
147.4023
147.6258
147.7328
147.5391
147.8978
147.2368
147.8695
147.2904
147.8478
147.4364
147.5587
147.7053
147.4617
147.8404
147.1479
147.8238
147.3055
147.8230
147.4615
147.5153
147.7079
147.3937
147.8814
147.1934
147.8447
147.3451
147.8107
147.5063
147.5112
147.7970
147.5008
147.9476
147.2172
147.8423
147.3348
147.7841
147.5378
147.4735
147.7617
147.3362
147.8553
147.1167
147.7801
147.3683
147.7411
147.5696
147.4062
147.7620
147.3413
147.9093
147.1860
147.8000
147.4111
147.7358
147.6013
147.4226
147.8371
147.3665
147.9315
147.1943
147.7727
147.4199
147.6680
147.6270
147.3483
147.7889
147.2732
147.8507
147.1078
147.6842
147.4447
147.6652
147.6445
147.2973
147.7731
147.2424
147.8707
147.1746
147.6972
147.4808
147.5824
147.6651
147.2761
147.8295
147.2845
147.8954
147.2117
147.6582
147.4943
147.5607
147.6922
147.2212
147.7720
147.2129
147.8079
147.1394
147.5640
147.5105
147.5110
147.6981
147.1737
147.7489
147.1498
147.7915
147.2365
147.5733
147.5578
147.4540
147.7166
147.1471
147.7980
147.2495
147.8436
147.2884
147.5275
147.5629
147.4304
147.7403
147.1203
147.7372
147.1576
147.7162
147.2400
147.4371
147.5683
147.3470
147.7251
147.659
147.7002
147.1269
147.6842
147.3310
147.4218
147.6111
147.3096
147.7373
147.419
147.7263
147.2322
147.7425
147.3901
147.3712
147.6108
147.2765
147.7515
147.381
147.6685
147.1726
147.5965
147.3437
147.2745
147.6144
147.2161
147.7366
147.99
147.6266
147.1879
147.5655
147.4444
147.2796
147.6658
147.2086
147.7541
147.218
147.6594
147.3183
147.6456
147.5256
147.2660
147.6788
147.1875
147.7741
147.466
147.6116
147.2980
147.5004
147.4788
147.1683
147.6731
147.1469
147.7430
147.414
147.5545
147.3237
147.4642
147.5661
147.1710
147.7050
147.1541
147.7528
147.718
147.5624
147.4353
147.5369
147.6425
147.1664
147.7067
147.1267
147.7487
147.1113
147.5221
147.4176
147.3844
147.5796
147.550
147.6770
147.1045
147.7050
147.1409
147.4526
147.4328
147.3313
147.6502
147.740
147.7010
147.1258
147.6963
147.1963
147.4443
147.5365
147.4044
147.7188
147.647
147.6901
147.1177
147.6933
147.2382
147.3883
147.5175
147.2738
147.6523
146.9708
147.6495
147.1201
147.6402
147.2795
147.3319
147.5264
147.2110
147.7006
147.98
147.6631
147.1613
147.6077
147.3292
147.3098
147.6170
147.2712
147.7552
147.114
147.6373
147.1686
147.5921
147.3748
147.2441
147.5844
147.1736
147.6885
146.9189
147.5608
147.2018
147.5514
147.4095
147.1968
147.5880
147.1072
147.7101
146.9893
147.5821
147.2649
147.4838
147.4546
147.1738
147.6601
147.1527
147.7490
147.245
147.5501
147.2857
147.4439
147.4937
147.1130
147.6206
147.669
147.6638
146.9556
147.4495
147.3233
147.4342
147.5258
147.642
147.6075
147.451
147.6883
147.503
147.4840
147.3844
147.3594
147.5576
147.569
147.6747
147.925
147.7037
147.1229
147.4384
147.4048
147.2945
147.5891
147.100
147.6164
147.173
147.5924
147.909
147.3277
147.4346
147.2692
147.6015
146.9506
147.5851
147.182
147.6049
147.1894
147.3338
147.4838
147.2501
147.6292
146.9546
147.6346
147.999
147.6296
147.2630
147.3027
147.4941
147.1535
147.6315
146.9364
147.5723
147.498
147.4830
147.2305
147.1800
147.5088
147.1163
147.6282
146.9033
147.5296
147.814
147.4689
147.3372
147.1885
147.5614
147.1107
147.6512
146.9084
147.5492
147.2092
147.5446
147.4161
147.1496
147.5678
147.831
147.6678
146.9284
147.4898
147.1932
147.3950
147.3800
147.461
147.5639
147.455
147.6400
146.9372
147.4447
147.2169
147.3421
147.4656
147.602
147.5999
147.208
147.6191
146.9679
147.4471
147.3355
147.3672
147.5336
147.158
147.5871
146.9826
147.6058
147.131
147.3620
147.3264
147.2361
147.4826
146.8874
147.5457
147.25
147.5912
147.574
147.2894
147.3392
147.2137
147.5612
146.9381
147.5742
147.170
147.5687
147.1072
147.2956
147.4415
147.2295
147.6101
146.9371
147.5635
146.9803
147.5115
147.1646
147.2313
147.4237
147.732
147.5364
146.8298
147.5030
147.115
147.4625
147.2118
147.1421
147.4303
147.296
147.5834
146.8661
147.5072
147.755
147.4299
147.2673
147.1178
147.5178
147.840
147.6387
146.8835
147.4702
147.985
147.3856
147.3177
147.504
147.4846
146.9768
147.5495
146.7906
147.3662
147.1476
147.3602
147.3507
146.9606
147.4679
146.9496
147.5820
146.8803
147.3793
147.2097
147.3074
147.3956
146.9666
147.5460
146.9886
147.6015
146.9436
147.3582
147.2331
147.2154
147.4334
146.9272
147.5025
146.8924
147.4884
146.9138
147.2597
147.2798
147.1649
147.4569
146.8632
147.4818
146.8820
147.4934
147.435
147.2568
147.3520
147.1295
147.4952
146.8488
147.5318
146.9856
147.5331
147.1321
147.2044
147.3731
147.764
147.5263
146.8266
147.4673
146.9381
147.3984
147.1027
147.826
147.3969
147.501
147.5285
146.7815
147.4163
146.9689
147.4002
147.2082
147.746
147.4339
147.243
147.5466
146.7939
147.4401
147.762
147.4235
147.2869
147.480
147.4487
146.9539
147.5424
146.8131
147.3764
147.669
147.2653
147.2556
146.9240
147.4444
146.9269
147.5187
146.8165
147.3259
147.1049
147.2246
147.3494
146.9404
147.4774
146.8965
147.5038
146.8654
147.3374
147.2313
147.2382
147.4322
146.9064
147.4834
146.8742
147.4962
146.9260
147.2546
147.2324
147.1025
147.3921
146.7963
147.4570
146.8851
147.4649
146.9846
147.1774
147.2607
147.644
147.4706
146.8248
147.4745
146.9166
147.4401
147.489
147.1647
147.3676
147.1031
147.5241
146.8007
147.4375
146.9070
147.3991
147.1030
147.717
147.3395
146.9492
147.4444
146.6920
147.3642
146.9494
147.3502
147.1474
146.9741
147.3352
146.9038
147.4900
146.7544
147.3640
147.81
147.3070
147.1992
146.9507
147.4248
146.9755
147.5408
146.7800
147.3245
147.354
147.2491
147.2529
146.8820
147.3838
146.8505
147.4416
146.7115
147.2146
147.903
147.2054
147.2965
146.8084
147.3675
146.8103
147.4562
146.8249
147.2302
147.1595
147.1347
147.3377
146.8076
147.4385
146.8704
147.4735
146.9017
147.1921
147.1915
147.557
147.3701
146.7700
147.3905
146.7997
147.3558
146.8896
147.680
147.2284
147.124
147.3878
146.7174
147.3533
146.7928
147.3403
147.121
147.714
147.2901
146.9504
147.4103
146.7097
147.3894
146.8969
147.3482
147.1040
147.203
147.3105
146.8762
147.4224
146.7039
147.3214
146.8923
147.2118
147.829
146.8834
147.3184
146.8496
147.4167
146.6889
147.2651
146.9388
147.1773
147.1900
146.8915
147.3642
146.8168
147.4114
146.7213
147.2802
147.707
147.1866
147.2788
146.8491
147.3764
146.7748
147.4063
146.7690
147.2044
147.788
147.457
147.2494
146.7343
147.3617
146.7839
147.3857
146.8236
147.1379
147.1190
147.92
147.3459
146.7654
147.3940
146.8013
147.3674
146.9081
147.1313
147.2489
147.411
147.4198
146.7467
147.3811
146.8011
147.3415
146.9845
147.543
147.2487
146.9036
147.3629
146.6499
147.3312
146.8436
147.2917
147.439
146.9761
147.2656
146.8576
147.4205
146.7053
147.3424
146.9207
147.2563
147.1136
146.9535
147.3721
146.9144
147.4792
146.7314
147.3106
146.9644
147.2102
147.1883
146.8943
147.3505
146.8018
147.3959
146.6723
147.2375
147.332
147.1603
147.2380
146.8227
147.3457
146.7670
147.4211
146.7804
147.2348
147.1114
147.1100
147.2879
146.7982
147.4204
146.8486
147.4600
146.8543
147.1793
147.1451
147.471
147.3349
146.7554
147.3686
146.7609
147.3318
146.8421
147.678
147.1932
147.56
147.3585
146.6956
147.3352
146.7621
147.3333
146.9697
147.666
147.2603
146.9558
147.3879
146.6847
147.3762
146.8799
147.3675
147.679
147.43
147.2803
146.8872
147.4077
146.6795
147.3127
146.8625
147.2141
147.457
146.8845
147.2983
146.8534
147.4069
146.6634
147.2565
146.9063
147.1845
147.1610
146.8814
147.3458
146.8290
147.4116
146.6909
147.2664
147.380
147.2203
147.2505
146.8339
147.3497
146.7754
147.4044
146.7304
147.1865
147.435
147.543
147.2187
146.7142
147.3376
146.7748
147.3815
146.7826
147.1157
147.838
147.160
147.3196
146.7465
147.3719
146.7932
147.3683
146.8648
147.1194
147.2134
147.640
147.3967
146.7223
147.3579
146.7835
147.3435
146.9364
147.369
147.2080
146.9036
147.3330
146.6117
147.3024
146.8162
147.2968
146.9978
146.9480
147.2248
146.8432
147.3864
146.6701
147.3155
146.8741
147.2488
147.662
146.9253
147.3253
146.9093
147.4509
146.6825
147.2757
146.9103
147.1893
147.1302
146.8525
147.3008
146.7729
147.3583
146.6139
147.1837
146.9779
147.1443
147.1832
146.7709
147.2913
146.7318
147.3853
146.7224
147.1901
147.593
147.872
147.2410
146.7533
147.3718
146.8145
147.4297
146.8035
147.1407
147.992
147.233
147.2913
146.7105
147.3280
146.7343
147.3130
146.8016
147.341
147.1517
146.9795
147.3274
146.6650
147.3064
146.7368
147.3118
146.9371
147.426
147.2307
146.9505
147.3697
146.6611
147.3548
146.8560
147.3549
147.359
146.9857
147.2570
146.8769
147.3905
146.6575
147.2894
146.8399
147.2098
147.243
146.8638
147.2746
146.8442
147.3937
146.6464
147.2397
146.8867
147.1823
147.1440
146.8692
147.3328
146.8314
147.4057
146.6705
147.2529
147.280
147.2277
147.2384
146.8256
147.3409
146.7742
147.4022
146.7228
147.1855
147.340
147.618
147.2116
146.7060
147.3307
146.7799
147.3893
146.7735
147.1138
147.786
147.253
147.3176
146.7504
147.3762
146.8029
147.3792
146.8571
147.1175
147.2124
147.869
147.4015
146.7284
147.3620
146.7899
147.3607
146.9370
147.452
147.2098
146.9284
147.3460
146.6180
147.3087
146.8303
147.3256
146.9991
146.9546
147.2291
146.8818
147.4102
146.6788
147.3239
146.8859
147.2892
147.695
146.9383
147.3291
146.9378
147.4687
146.6982
147.2913
146.9078
147.2231
147.1326
146.8673
147.3053
146.8006
147.3775
146.6162
147.1924
146.9781
147.1835
147.1906
146.7825
147.2974
146.7616
147.4068
146.7266
147.2083
147.592
147.1275
147.2414
146.7579
147.3750
146.8500
147.4584
146.7942
147.1517
147.951
147.625
147.2946
146.7203
147.3284
146.7508
147.3362
146.7852
147.326
147.1451
147.197
147.3311
146.6611
147.3002
146.7427
147.3340
146.9221
147.447
147.2169
146.9782
147.3712
146.6568
147.3473
146.8604
147.3844
147.196
146.9898
147.2428
146.9002
147.3936
146.6544
147.2867
146.8288
147.2313
147.103
146.8624
147.2697
146.8736
147.4005
146.6379
147.2349
146.8706
147.2042
147.1357
146.8844
147.3264
146.8496
147.4137
146.6658
147.2592
147.137
147.2470
147.2276
146.8437
147.3385
146.7884
147.4076
146.7077
147.1880
147.258
147.958
147.2030
146.7014
147.3207
146.7960
147.4043
146.7587
147.1218
147.643
147.481
147.3057
146.7505
147.3679
146.8085
147.3920
146.8311
147.1199
147.1961
147.948
147.3851
146.7348
147.3605
146.7781
147.3582
146.9144
147.553
147.1963
146.9436
147.3291
146.5998
147.2948
146.8169
147.3305
146.9740
146.9566
147.2082
146.8819
147.3945
146.6688
147.3180
146.8601
147.2823
147.384
146.9327
147.3126
146.9347
147.4528
146.6860
147.2856
146.8798
147.2175
147.1093
146.8648
147.2868
146.7975
147.3652
146.5915
147.1750
146.9537
147.1789
147.1661
146.7778
147.2808
146.7491
147.3948
146.7075
147.1954
147.349
147.1221
147.2201
146.7527
147.3619
146.8308
147.4433
146.7776
147.1558
147.726
147.489
147.2762
146.7133
147.3190
146.7412
147.3302
146.7659
147.259
147.1301
147.207
147.3199
146.6678
147.3000
146.7295
147.3248
146.9068
147.490
147.2095
146.9701
147.3560
146.6556
147.3468
146.8437
147.3690
147.46
146.9990
147.2347
146.8933
147.3831
146.6538
147.2871
146.8130
147.2230
146.9968
146.8629
147.2603
146.8689
147.3926
146.6309
147.2333
146.8604
147.2047
147.1234
146.8775
147.3138
146.8468
147.4071
146.6571
147.2501
147.11
147.2428
147.2123
146.8363
147.3274
146.7788
147.3985
146.6952
147.1760
147.59
147.745
147.1818
146.6836
147.3045
146.7802
147.3827
146.7317
147.899
147.373
147.200
147.2794
146.7148
147.3339
146.7760
147.3567
146.7993
147.753
147.1589
147.505
147.3513
146.6831
147.3107
146.7335
147.3069
146.8757
146.9958
147.1550
146.8790
147.2882
146.5572
147.2484
146.7688
147.2624
146.9419
146.9032
147.1741
146.8216
147.3491
146.6198
147.2633
146.8255
147.2167
147.158
146.8769
147.2742
146.8589
147.4015
146.6359
147.2280
146.8616
147.1468
147.822
146.8032
147.2491
146.7175
147.3090
146.5722
147.1427
146.9267
147.830
147.1347
146.7188
147.2459
146.6809
147.3347
146.6778
147.1399
147.109
147.231
147.1912
146.7012
147.3189
146.7466
147.3600
146.7565
147.831
147.478
146.9479
147.2353
146.6487
147.2687
146.6639
147.2371
146.7521
146.9704
147.950
146.8850
147.2593
146.5972
147.2396
146.6626
147.2246
146.8793
146.9582
147.1632
146.8307
147.2866
146.5921
147.2812
146.7807
147.2408
146.9799
146.9022
147.1930
146.7716
147.3146
146.5926
147.2160
146.7782
147.1065
146.9772
146.7960
147.2176
146.7435
147.3142
146.5928
147.1741
146.8401
147.820
147.968
146.7993
147.2767
146.7290
147.3255
146.6338
147.1882
146.9813
147.978
147.1944
146.7642
147.2910
146.6906
147.3231
146.6847
147.1106
146.9948
146.9625
147.1689
146.6333
147.2666
146.6990
147.2963
146.7387
147.343
147.343
146.9135
147.2546
146.6446
147.2822
146.7185
147.2779
146.8184
147.27
147.1497
146.9367
147.3198
146.6319
147.2665
146.7016
147.2223
146.8879
146.8922
147.1418
146.7951
147.2650
146.4922
147.1699
146.7579
147.1795
146.9547
146.7924
147.1588
146.7285
147.3117
146.5675
147.1844
146.8391
147.1325
147.344
146.7634
147.2546
146.7841
147.3666
146.6142
147.1499
146.8879
147.550
147.1062
146.7125
147.2301
146.6594
147.2685
146.5792
147.632
146.9607
146.9929
147.1564
146.6489
147.2278
146.6333
147.2807
146.7064
147.562
147.465
146.9415
147.2122
146.6329
147.2964
146.7198
147.3117
146.8167
147.133
147.874
146.8688
147.2589
146.6029
147.2449
146.6741
147.1957
146.8220
146.9063
147.1347
146.8256
147.2811
146.5778
147.2210
146.7027
147.1828
146.9549
146.9013
147.2086
146.7932
147.3148
146.5892
147.2552
146.8370
147.1976
147.575
146.8544
147.2337
146.7330
147.3211
146.6003
147.1850
146.8483
147.516
147.400
146.7315
147.2373
146.7110
147.3085
146.6137
147.1259
146.8992
147.200
147.1505
146.7366
147.2830
146.7059
147.3054
146.6645
147.1212
147.355
147.362
147.2353
146.7063
147.2905
146.6754
147.2903
146.7384
147.403
147.473
146.9002
147.2061
146.5650
147.2397
146.7020
147.2720
146.8116
146.9459
147.813
146.8479
147.2853
146.6072
147.2611
146.7399
147.2407
146.8927
146.9209
147.1979
146.8952
147.3574
146.6060
147.2354
146.7529
147.1904
146.9711
146.8346
147.1875
146.7500
147.2878
146.5095
147.1471
146.8265
147.1369
147.380
146.7490
147.1978
146.6971
147.3213
146.5993
147.1584
146.9199
147.892
147.1095
146.7221
147.2818
146.7545
147.3662
146.6682
147.1163
146.9635
147.34
147.1683
146.6657
147.2470
146.6515
147.2556
146.6467
147.81
147.235
146.9442
147.2053
146.6031
147.2278
146.6332
147.2539
146.7870
147.34
147.1016
146.8834
147.2503
146.5997
147.2840
146.7330
147.2785
146.8907
146.9497
147.1363
146.8080
147.2839
146.5821
147.2252
146.7048
147.1444
146.8896
146.8404
147.1732
146.7754
147.2967
146.5679
147.1921
146.7571
147.1256
147.226
146.8471
147.2430
146.7565
147.3217
146.5996
147.2238
146.9117
147.1551
147.1332
146.8070
147.2691
146.7120
147.3300
146.6352
147.1569
146.9286
147.168
147.1141
146.6931
147.2672
146.7049
147.3153
146.6755
147.995
146.9753
146.9729
147.2144
146.7091
147.3086
146.7142
147.3013
146.7452
147.954
147.1104
146.9929
147.2970
146.6967
147.3108
146.6958
147.2803
146.8311
147.152
147.1252
146.8749
147.2626
146.5727
147.2559
146.7359
147.2558
146.9079
146.9437
147.1573
146.8324
147.3330
146.6300
147.2798
146.8025
147.2299
146.9937
146.9218
147.2647
146.8676
147.3931
146.6580
147.2687
146.8329
147.1689
147.589
146.8371
147.2514
146.7614
147.3247
146.5563
147.1468
146.9089
147.1338
147.1235
146.7549
147.2479
146.7129
147.3503
146.6585
147.1532
146.9968
147.889
147.1841
146.7097
147.3167
146.7864
147.3992
146.7392
147.1164
147.385
147.37
147.2346
146.6638
147.2740
146.6958
147.2852
146.7359
146.9875
147.895
146.9585
147.2783
146.6197
147.2585
146.6932
147.2807
146.8745
146.9965
147.1789
146.9329
147.3241
146.6078
147.3025
146.8128
147.3290
146.9858
146.9561
147.2108
146.8484
147.3524
146.6111
147.2474
146.7991
147.1892
146.9812
146.8221
147.2353
146.8207
147.3630
146.6122
147.2098
146.8513
147.1616
147.1080
146.8381
147.2959
146.8122
147.3852
146.6408
147.2212
146.9894
147.2009
147.2086
146.8014
147.3112
146.7438
147.3707
146.6852
147.1469
147.15
147.348
147.1773
146.6702
147.2897
146.7345
147.3416
146.7330
147.749
147.366
146.9711
147.2646
146.6898
147.3172
146.7400
147.3184
146.8130
147.644
147.1633
147.36
147.3378
146.6611
147.3062
146.7315
147.2878
146.8866
146.9752
147.1592
146.8459
147.2898
146.5714
147.2587
146.7669
147.2343
146.9568
146.9068
147.1926
146.8049
147.3519
146.6271
147.2706
146.8462
147.2057
147.423
146.8938
147.3027
146.8602
147.4164
146.6632
147.2503
146.8960
147.1583
147.1188
146.8285
147.2832
146.7420
147.3428
146.6106
147.1714
146.9669
147.1097
147.1788
146.7654
147.2897
146.7165
147.3662
146.7151
147.1744
147.556
147.629
147.2358
146.7428
147.3610
146.7883
147.4033
146.8008
147.1262
147.953
146.9920
147.2807
146.6930
147.3082
146.7121
147.2868
146.7945
147.121
147.1355
146.9353
147.3048
146.6429
147.2827
146.7087
147.2716
146.9208
147.80
147.2092
146.8864
147.3363
146.6346
147.3221
146.8255
147.3027
147.273
146.9546
147.2375
146.8254
147.3655
146.6390
147.2670
146.8279
147.1636
147.176
146.8404
147.2661
146.8060
147.3722
146.6378
147.2239
146.8840
147.1395
147.1395
146.8486
147.3245
146.7902
147.3803
146.6663
147.2364
147.264
147.1700
147.2364
146.8078
147.3360
146.7421
147.3726
146.7199
147.1638
147.371
147.181
147.2080
146.6921
147.3165
146.7390
147.3484
146.7813
147.998
147.753
146.9670
147.2957
146.7177
147.3519
146.7620
147.3256
146.8535
147.837
147.1988
146.9978
147.3713
146.7010
147.3355
146.7509
147.2929
146.9332
147.81
147.1977
146.8564
147.3148
146.6003
147.2859
146.7997
147.2525
147.12
146.9309
147.2255
146.8177
147.3766
146.6599
147.3012
146.8820
147.2166
147.743
146.9095
147.3279
146.8683
147.4386
146.6911
147.2716
146.9252
147.1626
147.1469
146.8498
147.3087
146.7541
147.3517
146.6347
147.1903
146.9907
147.1121
147.2014
146.7824
147.3094
146.7256
147.3770
146.7373
147.1899
147.782
147.653
147.2553
146.7558
147.3775
146.7982
147.4167
146.8335
147.1461
147.1156
146.9949
147.2986
146.7160
147.3370
146.7367
147.3043
146.8237
147.353
147.1639
146.9552
147.3363
146.6736
147.3120
146.7362
147.2959
146.9565
147.365
147.2350
146.8964
147.3438
146.6408
147.3182
146.8199
147.2742
147.159
146.9354
147.2217
146.7924
147.3271
146.6119
147.2273
146.7952
147.1190
146.9848
146.7957
147.2188
146.7555
147.3167
146.6008
147.1701
146.8421
147.799
147.922
146.7994
147.2681
146.7445
147.3256
146.6281
147.1730
146.9713
147.1074
147.1851
146.7660
147.2749
146.6962
147.3060
146.6767
147.1000
146.9835
146.9635
147.1496
146.6430
147.2467
146.7043
147.2885
146.7349
147.389
147.205
146.9281
147.2422
146.6865
147.2884
146.7395
147.2865
146.8180
147.384
147.1507
146.9975
147.3322
146.6899
147.2904
146.7431
147.2716
146.9013
146.9859
147.1582
146.8784
147.2880
146.6018
147.2441
146.7935
147.2565
146.9791
146.9429
147.1872
146.8507
147.3554
146.6978
147.2904
146.8660
147.2480
147.528
146.9612
147.2982
146.9258
147.4227
146.7355
147.2882
146.9011
147.2038
147.1202
146.9252
147.2944
146.8240
147.3542
146.6766
147.2263
146.9774
147.1742
147.1870
146.8796
147.3096
146.8081
147.3999
146.7869
147.2641
147.780
147.1610
147.2573
146.8857
147.4035
146.9130
147.4743
146.8695
147.2506
147.1302
147.1499
147.3241
146.8791
147.3914
146.8612
147.4027
146.8540
147.1831
147.1925
147.1743
147.3814
146.8697
147.3995
146.8812
147.4460
146.9912
147.2585
147.2830
147.1384
147.4290
146.9025
147.4889
146.9927
147.5060
147.1035
147.2407
147.3291
147.1264
147.4825
146.9117
147.4642
146.9669
147.4237
147.934
147.1678
147.3739
147.1672
147.5330
146.9204
147.4656
147.62
147.4702
147.2191
147.2539
147.4562
147.1428
147.5595
146.9549
147.5358
147.1351
147.5309
147.3237
147.2391
147.4909
147.1371
147.6007
146.9972
147.5206
147.1380
147.4626
147.3083
147.1750
147.5126
147.1817
147.6417
147.170
147.5193
147.1761
147.4669
147.4193
147.2494
147.5943
147.1876
147.6681
147.588
147.5768
147.3228
147.5877
147.5251
147.2869
147.6331
147.2030
147.7070
147.1205
147.5773
147.3277
147.4746
147.4945
147.2137
147.6426
147.2255
147.7246
147.1479
147.5660
147.3713
147.5229
147.6019
147.3117
147.7193
147.2690
147.7616
147.1975
147.6253
147.4945
147.5958
147.6873
147.3246
147.7407
147.2749
147.7879
147.2655
147.6321
147.5000
147.5323
147.6480
147.2729
147.7460
147.3053
147.8000
147.2986
147.6156
147.5305
147.5499
147.7428
147.3640
147.8181
147.3676
147.8462
147.3544
147.6856
147.6546
147.6518
147.8297
147.3962
147.8451
147.3806
147.8738
147.4228
147.7012
147.6530
147.5918
147.7871
147.3535
147.8457
147.4158
147.8889
147.4603
147.6845
147.6774
147.6260
147.8788
147.4628
147.9209
147.4633
147.9152
147.5092
147.7519
147.7939
147.7340
147.9589
147.5043
147.9490
147.4876
147.9545
147.5693
147.7695
147.7870
147.6534
147.9052
147.4405
147.9360
147.5438
147.9957
147.6086
147.7838
147.8099
147.6932
147.9866
147.5461
148.144
147.5967
148.250
147.6612
147.8624
147.9245
147.8188
148.763
147.6045
148.485
147.6078
148.472
147.7130
147.8821
147.9172
147.7653
148.245
147.5568
148.391
147.6484
148.757
147.7453
147.8876
147.9346
147.8135
148.1080
147.6680
148.1197
147.7112
148.1207
147.7934
147.9732
148.457
147.9373
148.1945
147.7311
148.1628
147.7372
148.1603
147.8424
148.61
148.404
147.8920
148.1458
147.6972
148.1645
147.7905
148.2097
147.8775
148.328
148.593
147.9427
148.2261
147.8111
148.2499
147.8658
148.2741
147.9201
148.1074
148.1650
148.801
148.3186
147.8974
148.3054
147.8861
148.3095
147.9669
148.1436
148.1608
148.526
148.2744
147.8691
148.3070
147.9346
148.3522
147.9972
148.1749
148.1788
148.1271
148.3584
147.9880
148.3947
148.13
148.4030
148.360
148.2805
148.2817
148.2563
148.4390
148.593
148.4367
148.441
148.4660
148.765
148.3127
148.2666
148.2180
148.3825
148.339
148.4420
148.895
148.5049
148.1055
148.3476
148.2811
148.3069
148.4641
148.1582
148.5248
148.1533
148.5561
148.1459
148.4591
148.3788
148.4297
148.5363
148.2418
148.5707
148.1997
148.6079
148.1824
148.4786
148.3556
148.4196
148.4870
148.2333
148.5764
148.2463
148.6477
148.2264
148.5469
148.3735
148.4841
148.5507
148.3489
148.6600
148.3436
148.7204
148.2700
148.6293
148.4636
148.6575
148.6434
148.4478
148.6939
148.3783
148.7569
148.3292
148.6826
148.4369
148.6131
148.5631
148.4365
148.6963
148.4370
148.7934
148.3540
148.7084
148.4376
148.6951
148.6253
148.5553
148.7590
148.5253
148.8444
148.4069
148.7985
148.5346
148.8382
148.6861
148.6480
148.7829
148.5680
148.8730
148.4760
148.8423
148.5135
148.8024
148.6084
148.6572
148.7885
148.6380
148.9040
148.5231
148.8802
148.5350
148.8799
148.6668
148.7807
148.8465
148.7295
148.9472
148.5925
148.9687
148.6560
149.186
148.7243
148.8740
148.8575
148.7963
148.9753
148.6670
148.9934
148.6551
149.37
148.6497
148.8660
148.8504
148.8848
149.67
148.7251
149.175
148.6973
149.759
148.7277
148.9945
148.8995
148.9737
149.258
148.8108
149.1018
148.8382
149.1933
148.7994
149.769
148.8852
149.253
149.250
148.8786
149.1013
148.8361
149.1499
148.7357
149.615
148.8702
149.954
149.331
148.9387
149.1039
148.8824
149.1983
148.8325
149.1713
148.9197
149.1716
149.268
149.219
149.1686
149.293
149.2931
148.9282
149.2394
148.9228
149.2140
149.206
149.988
149.1552
149.321
149.2295
148.8903
149.2225
148.9460
149.2704
149.132
149.1614
149.1429
149.957
149.2697
149.192
149.3234
149.277
149.3408
149.191
149.2526
149.2002
149.2570
149.3415
149.1186
149.3598
149.678
149.3841
149.423
149.2991
149.1539
149.2587
149.2565
149.937
149.3283
149.1132
149.4233
149.680
149.3407
149.1221
149.3139
149.2757
149.2163
149.3869
149.1907
149.4516
149.1078
149.4248
149.1952
149.4479
149.3135
149.3251
149.3986
149.2435
149.4617
149.1536
149.4464
149.1676
149.4329
149.2061
149.2992
149.3524
149.3084
149.4808
149.2028
149.4677
149.1825
149.4922
149.2400
149.4252
149.3932
149.3966
149.4889
149.2836
149.5464
149.3067
149.6090
149.2982
149.5161
149.3762
149.4635
149.4869
149.3485
149.5441
149.3119
149.5769
149.2353
149.5007
149.3404
149.5221
149.4799
149.4207
149.5481
149.3604
149.6189
149.3298
149.6165
149.3960
149.6191
149.4733
149.5048
149.5978
149.5123
149.7108
149.4272
149.6795
149.4038
149.6592
149.4506
149.5775
149.5721
149.5178
149.6343
149.3929
149.6519
149.4283
149.7092
149.4462
149.6208
149.5339
149.5786
149.6540
149.5060
149.7195
149.4974
149.7534
149.4545
149.6982
149.5651
149.7166
149.6953
149.6026
149.7336
149.5377
149.7705
149.4866
149.7276
149.5167
149.6976
149.5814
149.5824
149.6849
149.5791
149.7754
149.5090
149.7461
149.5075
149.7495
149.5805
149.6802
149.7052
149.6554
149.7817
149.5609
149.8019
149.5947
149.8538
149.6121
149.7626
149.6800
149.7003
149.7585
149.6087
149.7919
149.5689
149.7983
149.5146
149.7243
149.6108
149.7334
149.7264
149.6409
149.7709
149.5926
149.8214
149.5713
149.8055
149.6285
149.7974
149.6991
149.7025
149.7943
149.7049
149.8843
149.6372
149.8473
149.6154
149.8201
149.6515
149.7391
149.7415
149.6806
149.7852
149.5688
149.7818
149.5911
149.8251
149.6108
149.7497
149.6805
149.7058
149.7728
149.6439
149.8216
149.6311
149.8445
149.5948
149.7871
149.6753
149.7992
149.7854
149.7060
149.8130
149.6412
149.8267
149.5897
149.7869
149.6060
149.7504
149.6474
149.6344
149.7172
149.6301
149.7955
149.5757
149.7688
149.5639
149.7549
149.6132
149.6986
149.7165
149.6742
149.7756
149.5889
149.7799
149.6045
149.8158
149.6184
149.7409
149.6682
149.6776
149.7209
149.5938
149.7401
149.5538
149.7355
149.4958
149.6543
149.5605
149.6734
149.6940
149.6502
149.7779
149.6564
149.8571
149.6735
149.8807
149.7494
149.9087
149.8311
149.8495
149.9286
149.8659
150.226
149.8369
150.201
149.8311
150.51
149.8594
149.9411
149.9448
149.9119
149.9971
149.8199
149.9979
149.8351
150.402
149.8627
149.9948
149.9312
149.9642
150.166
149.9108
150.657
149.9135
150.1036
149.8862
150.570
149.9526
150.659
150.518
149.9997
150.920
149.9456
150.1066
149.8920
150.701
149.9100
150.536
149.9513
149.9503
150.155
149.9385
150.867
149.8972
150.764
149.8898
150.712
149.9319
150.194
150.322
150.87
150.976
149.9302
150.1080
149.9452
150.1477
149.9587
150.910
150.129
150.385
150.678
149.9527
150.885
149.9206
150.1003
149.8685
150.298
149.9221
150.290
150.171
149.9668
150.636
149.9263
150.1012
149.8935
150.825
149.9360
150.898
149.9959
150.88
150.712
150.35
150.1479
149.9561
150.1311
149.9357
150.1051
149.9493
150.284
150.219
149.9905
150.685
149.8895
150.614
149.8961
150.972
149.9140
150.491
149.9773
150.127
150.566
149.9512
150.1019
149.9509
150.1381
149.9178
150.890
149.9815
150.1015
150.810
150.306
150.1166
149.9754
150.1351
149.9220
150.983
149.9315
150.758
149.9659
149.9710
150.323
149.9622
150.1059
149.9178
150.981
149.9112
150.940
149.9473
150.379
150.431
150.247
150.1105
149.9522
150.1277
149.9652
150.1657
149.9699
150.998
150.177
150.571
150.820
149.9739
150.1044
149.9344
150.1116
149.8817
150.472
149.9356
150.504
150.298
149.9827
150.740
149.9442
150.1166
149.9114
150.1000
149.9469
150.1009
149.9994
150.243
150.805
150.202
150.1585
149.9658
150.1388
149.9450
150.1202
149.9579
150.433
150.261
149.9967
150.686
149.8994
150.691
149.9042
150.1026
149.9118
150.476
149.9698
150.192
150.562
149.9558
150.996
149.9463
150.1320
149.9145
150.908
149.9763
150.1000
150.698
150.239
150.1060
149.9728
150.1295
149.9161
150.927
149.9219
150.683
149.9536
149.9704
150.252
149.9609
150.1000
149.9122
150.901
149.9040
150.918
149.9422
150.386
150.359
150.212
150.1020
149.9514
150.1255
149.9651
150.1658
149.9680
150.1028
150.120
150.562
150.735
149.9716
150.986
149.9321
150.1083
149.8806
150.531
149.9372
150.575
150.288
149.9900
150.764
149.9549
150.1273
149.9259
150.1166
149.9625
150.1209
150.111
150.476
150.994
150.511
150.1824
149.9930
150.1650
149.9700
150.1485
149.9808
150.773
150.493
150.274
150.900
149.9281
150.968
149.9378
150.1378
149.9423
150.825
149.9911
150.480
150.764
149.9944
150.1340
149.9861
150.1677
149.9452
150.1262
150.52
150.1454
150.1031
150.702
150.1396
150.135
150.1644
149.9603
150.1402
149.9632
150.1136
149.9823
150.144
150.591
150.137
150.1417
149.9584
150.1301
149.9417
150.1330
149.9726
150.899
150.732
150.765
150.1390
149.9943
150.1618
150.78
150.2110
150.90
150.1551
150.447
150.1058
150.1091
150.283
150.1456
149.9926
150.1622
149.9279
150.1012
149.9708
150.1096
150.619
150.451
150.1142
150.18
150.1610
149.9637
150.1560
149.9948
150.1657
150.326
150.895
150.1200
150.834
150.1984
150.221
150.1896
149.9938
150.1749
149.9908
150.999
150.552
150.623
150.1072
149.9604
150.1192
149.9627
150.1608
149.9592
150.1156
150.53
150.875
150.933
150.274
150.1501
150.113
150.1870
149.9701
150.1577
150.249
150.1763
150.1094
150.1008
150.1526
150.482
150.1851
149.9847
150.1606
149.9761
150.1395
149.9867
150.505
150.745
150.479
150.1571
149.9877
150.1547
149.9689
150.1665
149.9920
150.1236
150.817
150.1074
150.1495
150.277
150.1829
150.373
150.2353
150.237
150.1783
150.463
150.1346
150.1116
150.535
150.1513
150.55
150.1647
149.9338
150.1166
149.9773
150.1342
150.569
150.636
150.1102
150.187
150.1649
149.9810
150.1714
149.9993
150.1750
150.188
150.1035
150.1154
150.1090
150.2054
150.400
150.1960
150.29
150.1876
149.9945
150.1288
150.569
150.851
150.1045
149.9809
150.1287
149.9844
150.1811
149.9727
150.1363
150.50
150.1140
150.955
150.582
150.1672
150.508
150.2141
149.9973
150.1866
150.364
150.2047
150.1095
150.1386
150.1674
150.831
150.2025
150.105
150.1836
149.9987
150.1746
149.9958
150.832
150.796
150.780
150.1653
150.184
150.1754
149.9930
150.1901
149.9998
150.1504
150.797
150.1382
150.1537
150.621
150.2004
150.650
150.2543
150.382
150.2045
150.527
150.1702
150.1150
150.855
150.1612
150.358
150.1823
149.9604
150.1476
149.9936
150.1651
150.571
150.998
150.1222
150.630
150.1904
150.191
150.2034
150.302
150.2154
150.347
150.1519
150.1337
150.1624
150.2307
150.918
150.2339
150.475
150.2327
150.297
150.1824
150.768
150.1435
150.1293
150.383
150.1654
150.402
150.2273
150.164
150.1904
150.331
150.1710
150.1139
150.1154
150.1945
150.1039
150.2474
150.396
150.2297
150.686
150.2535
150.1180
150.1874
150.1824
150.1319
150.2227
150.510
150.2143
150.290
150.2120
150.78
150.1272
150.867
150.1208
150.1745
150.572
150.1956
150.250
150.2191
150.144
150.1828
150.780
150.1770
150.1539
150.1015
150.2148
150.1026
150.2781
150.632
150.2358
150.586
150.2042
150.1113
150.1254
150.1683
150.740
150.1974
149.9929
150.1792
150.141
150.1999
150.505
150.1327
150.1173
150.942
150.1894
150.430
150.2164
150.454
150.2355
150.330
150.1783
150.1199
150.1888
150.2207
150.1166
150.2375
150.681
150.2453
150.314
150.1972
150.586
150.1632
150.1085
150.591
150.1587
150.558
150.2255
150.188
150.1975
150.217
150.1845
150.865
150.1305
150.1757
150.1175
150.2360
150.469
150.2329
150.679
150.2639
150.939
150.1972
150.1549
150.1469
150.2071
150.665
150.2157
150.348
150.2165
149.9954
150.1422
150.649
150.1448
150.1596
150.754
150.1932
150.471
150.2352
150.299
150.2119
150.768
150.2091
150.1443
150.1364
150.2205
150.1371
150.2934
150.891
150.2639
150.735
150.2402
150.1047
150.1685
150.1773
150.1214
150.2129
150.287
150.2090
150.474
150.2464
150.678
150.1869
150.1292
150.1523
150.2093
150.1008
150.2554
150.956
150.2832
150.663
150.2336
150.1305
150.2401
150.2276
150.1734
150.2645
150.1188
150.2793
150.642
150.2382
150.741
150.2169
150.1117
150.1158
150.1770
150.1060
150.2481
150.598
150.2383
150.530
150.2367
150.902
150.1821
150.1817
150.1630
150.2448
150.930
150.2673
150.1068
150.3068
150.1095
150.2436
150.1535
150.2000
150.2164
150.1179
150.2408
150.776
150.2510
150.198
150.1919
150.732
150.2019
150.1633
150.1279
150.2060
150.860
150.2541
150.607
150.2532
150.933
150.2537
150.1305
150.1756
150.2171
150.1749
150.3001
150.1217
150.2895
150.925
150.2699
150.911
150.1990
150.1616
150.1637
150.2120
150.613
150.2210
150.643
150.2644
150.666
150.2220
150.1134
150.1940
150.2005
150.1332
150.2583
150.1241
150.3005
150.854
150.2725
150.1356
150.2874
150.2171
150.2135
150.2647
150.1612
150.2950
150.974
150.2736
150.900
150.2562
150.959
150.1661
150.1827
150.1632
150.2664
150.1042
150.2681
150.826
150.2792
150.982
150.2408
150.1884
150.2292
150.2581
150.1473
150.2954
150.1522
150.3487
150.1421
150.3072
150.1650
150.2655
150.2237
150.1780
150.2665
150.1397
150.2931
150.670
150.2495
150.991
150.2651
150.1673
150.2020
150.2328
150.1660
150.2964
150.1204
150.3054
150.1347
150.3199
150.1446
150.2585
150.2419
150.2630
150.3347
150.1930
150.3365
150.1499
150.3333
150.1284
150.2773
150.1739
150.2386
150.2245
150.1312
150.2595
150.1341
150.3213
150.1115
150.2851
150.1281
150.2662
150.2070
150.2094
150.2866
150.1980
150.3394
150.1327
150.3222
150.1636
150.3512
150.2128
150.2856
150.2770
150.2366
150.3228
150.1602
150.3211
150.1341
150.3156
150.1099
150.2406
150.1924
150.2405
150.2827
150.1735
150.3061
150.1408
150.3353
150.1362
150.3131
150.1957
150.3043
150.2637
150.2230
150.3259
150.2243
150.3970
150.1914
150.3678
150.1871
150.3394
150.2238
150.2589
150.2878
150.2187
150.3266
150.1275
150.3085
150.1441
150.3388
150.1744
150.2856
150.2466
150.2532
150.3252
150.1993
150.3600
150.1967
150.3856
150.1732
150.3386
150.2506
150.3525
150.3506
150.2738
150.3720
150.2212
150.3883
150.1802
150.3573
150.1965
150.3267
150.2320
150.2281
150.2984
150.2198
150.3676
150.1794
150.3594
150.1762
150.3594
150.2186
150.3070
150.3106
150.2893
150.3731
150.2192
150.3946
150.2368
150.4371
150.2401
150.3731
150.2805
150.3243
150.3412
150.2485
150.3715
150.2089
150.3807
150.1490
150.3225
150.2018
150.3375
150.2945
150.2688
150.3400
150.2256
150.3881
150.1917
150.3843
150.2259
150.3965
150.2642
150.3251
150.3545
150.3238
150.4357
150.2597
150.4253
150.2378
150.4230
150.2383
150.3552
150.2959
150.3071
150.3396
150.2096
150.3622
150.2147
150.4098
150.2036
150.3614
150.2359
150.3374
150.3241
150.2838
150.3900
150.2693
150.4336
150.2204
150.4099
150.2617
150.4262
150.3293
150.3567
150.3860
150.3109
150.4274
150.2434
150.4119
150.2192
150.3923
150.2105
150.3111
150.2991
150.3108
150.3852
150.2463
150.3953
150.2148
150.4118
150.2211
150.3820
150.2941
150.3744
150.3669
150.2936
150.4180
150.2921
150.4741
150.2628
150.4356
150.2715
150.4069
150.3260
150.3321
150.3831
150.2757
150.4037
150.1966
150.3835
150.2284
150.4134
150.2715
150.3520
150.3382
150.3105
150.4068
150.2701
150.4430
150.2761
150.4630
150.2660
150.4127
150.3471
150.4197
150.4441
150.3488
150.4659
150.3063
150.4787
150.2749
150.4424
150.2961
150.4087
150.3372
150.3089
150.3963
150.3118
150.4700
150.2798
150.4569
150.2779
150.4503
150.3294
150.4058
150.4249
150.3854
150.4821
150.3281
150.5073
150.3534
150.5495
150.3662
150.4936
150.4124
150.4396
150.4651
150.3702
150.5001
150.3433
150.5150
150.2950
150.4631
150.3447
150.4686
150.4326
150.4074
150.4858
150.3827
150.5452
150.3670
150.5540
150.3925
150.5530
150.4192
150.4838
150.5134
150.4986
150.6074
150.4477
150.6063
150.4209
150.5987
150.4171
150.5417
150.4690
150.4877
150.5092
150.4054
150.5494
150.4197
150.6057
150.4031
150.5621
150.4204
150.5338
150.5009
150.4898
150.5815
150.4807
150.6293
150.4402
150.6280
150.4798
150.6544
150.5283
150.5865
150.5819
150.5278
150.6209
150.4726
150.6343
150.4594
150.6337
150.4373
150.5641
150.5114
150.5625
150.5994
150.5058
150.6300
150.4817
150.6668
150.4852
150.6597
150.5329
150.6492
150.5876
150.5793
150.6643
150.5830
150.7353
150.5478
150.7182
150.5430
150.7062
150.5700
150.6464
150.6359
150.5953
150.6701
150.5172
150.6838
150.5356
150.7256
150.5456
150.6806
150.5937
150.6612
150.6849
150.6255
150.7495
150.6109
150.7761
150.5771
150.7551
150.6290
150.7748
150.7084
150.7217
150.7667
150.6814
150.8042
150.6340
150.7979
150.6195
150.7763
150.6144
150.7080
150.6997
150.7086
150.7849
150.6629
150.8086
150.6503
150.8371
150.6653
150.8225
150.7254
150.8079
150.7870
150.7493
150.8583
150.7625
150.9267
150.7350
150.8978
150.7306
150.8753
150.7696
150.8187
150.8368
150.7760
150.8704
150.7093
150.8775
150.7304
150.9112
150.7480
150.8630
150.7993
150.8377
150.8891
150.8343
150.9605
150.8078
150.9683
150.7757
150.9469
150.8405
150.9794
150.9264
150.9220
150.9720
150.8764
151.44
150.8507
151.142
150.8348
150.9808
150.8284
150.9147
150.9111
150.9169
150.9953
150.8757
151.138
150.8553
151.370
150.8750
151.299
150.9350
151.179
150.9970
150.9695
151.727
150.9843
151.1395
150.9622
151.1195
150.9528
151.926
150.9846
151.428
151.483
150.9930
151.768
150.9333
151.958
150.9586
151.1367
150.9705
151.927
151.156
151.782
151.1078
151.609
151.1771
151.521
151.2064
151.306
151.2008
151.825
151.2291
151.1494
151.1802
151.2019
151.1409
151.2437
151.1059
151.2558
151.869
151.2397
151.751
151.1857
151.1475
151.1928
151.2357
151.1550
151.2698
151.1361
151.3056
151.1477
151.3097
151.1898
151.3036
151.2381
151.2582
151.3247
151.2808
151.4065
151.2511
151.3979
151.2278
151.3829
151.2431
151.3477
151.3024
151.3116
151.3417
151.2495
151.3803
151.2696
151.4346
151.2703
151.4140
151.2937
151.4108
151.3676
151.3943
151.4512
151.3880
151.4938
151.3645
151.5179
151.4130
151.5676
151.4415
151.5272
151.4714
151.5049
151.5248
151.4662
151.5512
151.4507
151.5610
151.4393
151.5493
151.4953
151.5843
151.5364
151.5631
151.5659
151.5815
151.6235
151.5962
151.6057
151.6283
151.6153
151.6024
151.5967
151.6169
151.6214
151.6056
151.5659
151.5478
151.5337
151.5007
151.4510
151.4017
151.3727
151.3321
151.2778
151.2273
151.1942
151.1567
151.1089
151.407
150.9874
150.9438
150.8938
150.8130
150.7367
150.6860
150.6239
150.5626
150.4822
150.4143
150.3518
150.2781
150.1815
150.835
150.88
149.9247
149.8212
149.7056
149.6099
149.5249
149.4424
149.3336
149.2371
149.1581
149.715
148.9810
148.8754
148.7924
148.7148
148.6328
148.5197
148.4133
148.3388
148.2533
148.1672
148.614
147.9719
147.8886
147.7985
147.6893
147.5740
147.4863
147.3907
147.2816
147.1506
147.368
146.9471
146.8496
146.7411
146.6281
146.5335
146.4437
146.3493
146.2350
146.1301
146.481
145.9610
145.8545
145.7301
145.6326
145.5517
145.4594
145.3509
145.2465
145.1511
145.578
144.9580
144.8304
144.7174
144.6230
144.5179
144.3917
144.2581
144.1438
144.472
143.9484
143.8282
143.7108
143.6112
143.5121
143.4102
143.2881
143.1815
143.929
143.7
142.8889
142.7565
142.6495
142.5640
142.4656
142.3553
142.2422
142.1405
142.426
141.9377
141.8095
141.6799
141.5790
141.4708
141.3518
141.2055
141.745
140.9763
140.8675
140.7588
140.6230
140.5092
140.4125
140.3040
140.1920
140.618
139.9563
139.8596
139.7565
139.6269
139.4976
139.3967
139.2995
139.1944
139.657
138.9474
138.8400
138.7365
138.6261
138.4867
138.3511
138.2476
138.1327
138.61
137.8531
137.7186
137.6148
137.4991
137.3892
137.2437
137.1207
137.164
136.9067
136.7945
136.6562
136.5384
136.4410
136.3357
136.2154
136.686
135.9482
135.8592
135.7458
135.6331
135.4951
135.3786
135.2708
135.1581
135.363
134.8839
134.7554
134.6472
134.5293
134.3944
134.2405
134.1061
134.25
133.8832
133.7682
133.6178
133.4920
133.3837
133.2705
133.1547
133.144
132.8895
132.7846
132.6767
132.5592
132.4066
132.2754
132.1810
132.721
131.9584
131.8142
131.6870
131.5687
131.4567
131.3365
131.1935
131.427
130.9263
130.8104
130.6841
130.5279
130.3753
130.2483
130.1417
130.198
129.8962
129.7464
129.6216
129.5131
129.3957
129.2767
129.1312
129.20
128.8976
128.7882
128.6690
128.5148
128.3762
128.2716
128.1669
128.452
127.9110
127.7691
127.6445
127.5263
127.4022
127.2720
127.1110
126.9718
126.8590
126.7333
126.5976
126.4303
126.2828
126.1630
126.473
125.9250
125.7844
125.6317
125.5060
125.3945
125.2731
125.1519
125.18
124.8712
124.7638
124.6496
124.5287
124.3716
124.2244
124.1107
124.110
123.8828
123.7590
123.6018
123.4720
123.3493
123.2301
123.1030
122.9478
122.7848
122.6614
122.5425
122.4089
122.2577
122.875
121.9464
121.8350
121.7129
121.5852
121.4307
121.2800
121.1560
121.423
120.9211
120.7983
120.6434
120.5015
120.3905
120.2787
120.1564
120.73
119.8458
119.7175
119.6198
119.4978
119.3712
119.2201
119.700
118.9399
118.8145
118.6867
118.5559
118.3876
118.2278
118.1098
117.9872
117.8534
117.6973
117.5235
117.3805
117.2688
117.1461
117.162
116.8752
116.7116
116.5836
116.4689
116.3528
116.2258
116.855
115.9290
115.8048
115.6953
115.5761
115.4485
115.2808
115.1285
115.155
114.9196
114.7865
114.6568
114.4922
114.3432
114.2143
114.854
113.9580
113.8258
113.6610
113.4974
113.3751
113.2576
113.1229
112.9780
112.7947
112.6443
112.5225
112.4177
112.2845
112.1625
112.1
111.8545
111.7319
111.6207
111.5005
111.3782
111.2325
111.785
110.9589
110.8493
110.7339
110.6087
110.4420
110.2837
110.1676
110.742
109.9537
109.8178
109.6738
109.5033
109.3724
109.2426
109.1158
108.9848
108.8466
108.6723
108.5214
108.4148
108.2933
108.1590
108.148
107.8355
107.6924
107.5752
107.4748
107.3421
107.2204
107.716
106.9154
106.8011
106.6894
106.5789
106.4547
106.3315
106.1693
106.306
105.9254
105.8172
105.6985
105.5718
105.3942
105.2457
105.1346
105.429
104.9179
104.7759
104.6357
104.4623
104.3342
104.2115
104.872
103.9581
103.8283
103.6673
103.5006
103.3788
103.2791
103.1468
103.102
102.8570
102.6837
102.5521
102.4475
102.3498
102.2201
102.1035
101.9600
101.8001
101.6879
101.5794
101.4656
101.3409
101.2247
101.730
100.9215
100.8100
100.7109
100.5951
100.4710
100.3350
100.1555
100.182
99.9157
99.8185
99.6839
99.5430
99.4067
99.2306
99.1039
98.9933
98.8700
98.7442
98.6182
98.4833
98.3109
98.1708
98.769
97.9665
97.8339
97.7041
97.5473
97.3832
97.2644
97.1701
97.724
96.9441
96.8317
96.7070
96.5407
96.4273
96.3266
96.2154
96.914
95.9710
95.8496
95.6846
95.5551
95.4632
95.3609
95.2387
95.1135
94.9711
94.7891
94.6618
94.5680
94.4785
94.3480
94.2006
94.846
93.9168
93.7821
93.6789
93.5649
93.4397
93.3150
93.2013
93.530
92.8841
92.7662
92.6860
92.5765
92.4500
92.3307
92.1878
92.243
91.9113
91.8199
91.7392
91.6203
91.4918
91.3929
91.2327
91.953
91.1
90.9026
90.7931
90.6732
90.5631
90.4370
90.2727
90.1509
90.651
89.9660
89.8455
89.7235
89.6044
89.4317
89.2836
89.1851
89.1058
89.12
88.8595
88.7340
88.6235
88.4574
88.3380
88.2469
88.1396
88.178
87.8964
87.7900
87.6634
87.4928
87.3662
87.2876
87.1956
87.739
86.9568
86.8489
86.6893
86.5435
86.4493
86.3722
86.2893
86.1708
86.507
85.9635
85.8135
85.6678
85.5860
85.5014
85.3949
85.2791
85.1623
85.685
84.9256
84.7707
84.6694
84.5984
84.5010
84.3850
84.2731
84.1691
84.46
83.8480
83.7561
83.6899
83.6081
83.4842
83.3459
83.2532
83.1182
82.9569
82.8632
82.7844
82.6796
82.5584
82.4458
82.3494
82.2398
82.756
81.9452
81.8684
81.8064
81.6971
81.5770
81.4748
81.3667
81.1996
81.777
80.9993
80.9418
80.8617
80.7363
80.6199
80.5548
80.4280
80.2627
80.1784
80.1114
80.230
79.9106
79.7969
79.7020
79.6192
79.4684
79.3359
79.2525
79.1948
79.968
78.9814
78.8763
78.7850
78.6498
78.4809
78.3840
78.3231
78.2651
78.1591
78.277
77.9135
77.8448
77.6998
77.5464
77.4745
77.4134
77.3091
77.1865
77.844
76.9998
76.9231
76.7747
76.6285
76.5450
76.5037
76.4270
76.3044
76.2018
76.1215
76.194
75.8548
75.7407
75.6758
75.6314
75.5681
75.4589
75.3359
75.2645
75.1989
75.366
74.9076
74.8565
74.8013
74.7035
74.5882
74.4872
74.4152
74.3523
74.2123
74.651
73.9855
73.9447
73.8782
73.7626
73.6570
73.5744
73.4989
73.3426
73.1874
73.1145
73.744
73.221
72.9264
72.8033
72.6960
72.6408
72.5480
72.3780
72.2729
72.2338
72.1730
72.631
71.9486
71.8576
71.7885
71.7242
71.5837
71.4422
71.3651
71.3301
71.2886
71.1786
71.632
70.9855
70.9223
70.8002
70.6410
70.5587
70.5199
70.4881
70.4213
70.3119
70.2057
70.1475
70.1170
69.9844
69.8257
69.7600
69.7330
69.6817
69.5723
69.4641
69.3757
69.3198
69.2687
69.1269
68.9816
68.9120
68.8911
68.8566
68.7516
68.6436
68.5600
68.5019
68.4137
68.2421
68.1200
68.805
68.568
68.118
67.9095
67.7969
67.6996
67.6639
67.6125
67.4523
67.3127
67.2732
67.2474
67.1795
67.564
66.9550
66.8909
66.8449
66.7951
66.6533
66.5127
66.4484
66.4368
66.4242
66.3255
66.2011
66.1238
66.893
66.367
65.8896
65.7472
65.6939
65.6786
65.6636
65.6054
65.5003
65.3998
65.3442
65.3372
65.2561
65.869
64.9907
64.9810
64.9634
64.9020
64.7880
64.6986
64.6356
64.5981
64.5601
64.4250
64.2799
64.2187
64.2082
64.1984
64.1181
64.85
63.9268
63.8849
63.8507
63.7480
63.5746
63.4763
63.4613
63.4539
63.4238
63.3257
63.2156
63.1242
63.890
63.817
62.9735
62.8010
62.7178
62.7243
62.7097
62.6379
62.5146
62.4240
62.3729
62.3443
62.3133
62.1935
62.458
61.9712
61.9648
61.9776
61.9344
61.8130
61.7163
61.6755
61.6617
61.6213
61.4669
61.3311
61.2978
61.3045
61.2981
61.2597
61.1656
61.711
61.70
61.51
61.22
60.8694
60.7130
60.6702
60.6898
60.6844
60.6226
60.5047
60.4189
60.3735
60.3545
60.3474
60.2457
60.892
60.48
59.9995
60.151
59.9975
59.8897
59.7847
59.7331
59.7156
59.7002
59.6088
59.4317
59.3313
59.3321
59.3493
59.3453
59.2825
59.1739
59.797
59.274
59.274
59.256
58.8875
58.7242
58.6781
58.7080
58.7106
58.6536
58.5286
58.4450
58.4112
58.3953
58.3886
58.3248
58.1760
58.681
58.503
58.773
58.1006
58.443
57.9286
57.8498
57.8320
57.8406
57.8236
57.6965
57.5542
57.5101
57.5325
57.5487
57.5492
57.4865
57.3899
57.3176
57.2912
57.3176
57.3172
57.1739
57.242
57.19
57.433
57.593
57.207
56.9063
56.8160
56.7750
56.7597
56.7612
56.7418
56.6071
56.4777
56.4407
56.4709
56.4999
56.4766
56.3683
56.2747
56.2389
56.2361
56.2409
56.1918
56.270
55.9002
55.8895
55.9284
55.9487
55.9246
55.8185
55.7274
55.6693
55.6545
55.6765
55.6587
55.5059
55.3628
55.3383
55.3897
55.4114
55.3743
55.2594
55.1585
55.1291
55.1347
55.1397
55.1358
55.246
54.8771
54.8225
54.8454
54.8911
54.9158
54.8465
54.7308
54.6665
54.6704
54.6997
54.7015
54.6007
54.4455
54.3828
54.4178
54.4580
54.4791
54.4607
54.3747
54.2988
54.2570
54.2694
54.3144
54.2954
54.1262
53.9970
54.75
54.773
54.980
54.716
53.9654
53.8755
53.8446
53.8453
53.8665
53.8838
53.7917
53.6409
53.5668
53.5961
53.6469
53.6736
53.6330
53.5210
53.4505
53.4358
53.4561
53.4727
53.4265
53.2619
53.1469
53.1538
53.2118
53.2446
53.2460
53.1662
53.690
53.156
52.9995
53.187
53.537
52.9859
52.8210
52.7291
52.7651
52.8282
52.8458
52.8045
52.6906
52.6154
52.6045
52.6209
52.6433
52.6585
52.5736
52.4292
52.3616
52.3902
52.4608
52.5111
52.4896
52.3781
52.3020
52.2998
52.3346
52.3669
52.3493
52.2114
52.856
52.782
52.1437
52.1881
52.2194
52.2003
52.1170
52.490
52.300
52.593
52.1179
52.1285
51.9804
51.8381
51.8328
51.9143
51.9738
51.9734
51.9061
51.8066
51.7616
51.7669
51.7888
51.8237
51.8218
51.6973
51.5778
51.5543
51.6080
51.6696
51.6998
51.6391
51.5385
51.4883
51.4969
51.5303
51.5590
51.5306
51.3710
51.2438
51.2465
51.3162
51.3710
51.4038
51.3656
51.2626
51.1968
51.1820
51.2036
51.2538
51.2686
51.1318
50.9969
50.9747
51.452
51.1125
51.1331
51.675
50.9466
50.8944
50.9122
50.9454
50.9776
50.9929
50.9052
50.7789
50.7330
50.7768
50.8513
50.9084
50.9004
50.7966
50.7287
50.7376
50.7832
50.8264
50.8352
50.7244
50.5892
50.5634
50.6298
50.6988
50.7376
50.7573
50.6827
50.6068
50.5855
50.6127
50.6811
50.7420
50.6827
50.5196
50.4484
50.5059
50.5904
50.6270
50.6212
50.5289
50.4449
50.4354
50.4705
50.5055
50.5461
50.5449
50.4160
50.3079
50.3150
50.3905
50.4553
50.4912
50.4337
50.3302
50.2963
50.3221
50.3664
50.4028
50.3930
50.2532
50.1273
50.1247
50.2045
50.2621
50.2992
50.2993
50.2117
50.1416
50.1269
50.1495
50.2015
50.2547
50.1797
50.142
49.9515
50.185
50.1139
50.1561
50.1391
50.317
49.9561
49.9633
50.90
50.510
50.985
50.868
49.9589
49.8749
49.8906
49.9668
50.391
50.873
50.396
49.9411
49.9099
49.9472
50.59
50.594
50.649
49.9428
49.8233
49.8299
49.9173
49.9952
50.455
50.684
49.9954
49.9241
49.9144
49.9507
50.283
50.944
50.299
49.8701
49.8108
49.8868
49.9866
50.316
50.410
49.9573
49.8916
49.8868
49.9177
49.9615
50.103
50.123
49.8965
49.7952
49.8063
49.8879
49.9697
50.171
49.9739
49.8781
49.8425
49.8739
49.9263
49.9780
49.9852
49.8638
49.7229
49.7143
49.8000
49.8775
49.9235
49.9327
49.8537
49.7905
49.7768
49.8027
49.8550
49.9226
49.8859
49.7303
49.6459
49.7026
49.8047
49.8670
49.8749
49.7898
49.7158
49.7151
49.7604
49.8059
49.8519
49.8788
49.7715
49.6667
49.6617
49.7403
49.8265
49.8936
49.8903
49.7959
49.7424
49.7743
49.8363
49.8960
49.9292
49.8340
49.7103
49.7018
49.7914
49.8826
49.9353
49.9711
49.9206
49.8636
49.8473
49.8846
49.9513
50.294
50.112
49.8585
49.7757
49.8442
49.9561
50.224
50.439
49.9777
49.9012
49.8911
49.9376
49.9880
50.444
50.733
49.9730
49.8669
49.8653
49.9492
50.353
50.990
50.910
49.9882
49.9428
49.9753
50.336
50.928
50.1224
50.172
49.8743
49.8527
49.9372
50.257
50.847
50.1115
50.380
49.9712
49.9689
50.18
50.546
50.1321
50.1218
49.9687
49.8783
49.9313
50.392
50.1046
50.1180
50.525
49.9793
49.9876
50.389
50.878
50.1411
50.1745
50.732
49.9681
49.9652
50.528
50.1447
50.2311
50.2264
50.1273
50.813
50.1175
50.1892
50.2581
50.2900
50.1864
50.707
50.749
50.1707
50.2657
50.3306
50.3716
50.3096
50.2514
50.2584
50.3090
50.3856
50.4666
50.4067
50.2621
50.2258
50.3176
50.4228
50.4781
50.4877
50.4105
50.3479
50.3612
50.4130
50.4769
50.5439
50.5310
50.4106
50.3471
50.3943
50.4953
50.5806
50.6255
50.5580
50.4762
50.4734
50.5260
50.5930
50.6468
50.6234
50.4772
50.3946
50.4450
50.5453
50.6179
50.6748
50.6619
50.5886
50.5568
50.5784
50.6265
50.7097
50.7413
50.6103
50.4980
50.5210
50.6323
50.7170
50.7507
50.7052
50.6136
50.6074
50.6549
50.7130
50.7777
50.8204
50.7363
50.6336
50.6367
50.7228
50.8177
50.9003
50.8972
50.8069
50.7732
50.8216
50.8918
50.9552
50.9821
50.8770
50.7695
50.7954
50.9047
50.9965
51.613
51.862
51.251
50.9834
51.0
51.648
51.1592
51.2268
51.1193
50.9876
51.4
51.1147
51.2146
51.2616
51.2414
51.1554
51.1342
51.1738
51.2300
51.2995
51.3532
51.2738
51.1640
51.1584
51.2443
51.3380
51.4105
51.4053
51.3186
51.2904
51.3371
51.3989
51.4533
51.4782
51.3650
51.2575
51.2719
51.3746
51.4638
51.5223
51.5165
51.4474
51.4132
51.4339
51.4856
51.5710
51.6175
51.4970
51.3822
51.4032
51.5209
51.6119
51.6493
51.6069
51.5267
51.5211
51.5765
51.6345
51.6926
51.7212
51.6201
51.5473
51.5738
51.6638
51.7641
51.8453
51.8163
51.7319
51.7241
51.7858
51.8625
51.9215
51.9014
51.7797
51.7335
51.8050
51.9054
51.9835
52.464
52.165
51.9631
51.9644
52.95
52.905
52.1886
52.1494
52.120
51.9772
52.804
52.1892
52.2436
52.2472
52.1680
52.1293
52.1587
52.2161
52.2865
52.3527
52.2909
52.1785
52.1704
52.2624
52.3611
52.4414
52.4302
52.3461
52.3283
52.3733
52.4340
52.4993
52.5037
52.3696
52.2864
52.3344
52.4449
52.5310
52.5802
52.5340
52.4791
52.4742
52.5038
52.5700
52.6563
52.6321
52.4957
52.4427
52.5281
52.6371
52.6942
52.6944
52.6137
52.5860
52.6316
52.6923
52.7473
52.7968
52.7315
52.6293
52.6294
52.7150
52.8141
52.9054
52.8922
52.8071
52.7946
52.8548
52.9293
52.9968
52.9890
52.8690
52.8198
52.8899
52.9934
53.722
53.1352
53.941
53.458
53.510
53.1095
53.2026
53.2796
53.1949
53.667
53.758
53.1936
53.2947
53.3450
53.3178
53.2395
53.2382
53.2815
53.3434
53.4199
53.4305
53.3262
53.2593
53.3073
53.4064
53.4961
53.5372
53.4652
53.4154
53.4469
53.5061
53.5717
53.6063
53.5046
53.3986
53.4168
53.5172
53.6077
53.6702
53.6548
53.5964
53.5806
53.5990
53.6586
53.7430
53.7216
53.5834
53.5386
53.6370
53.7472
53.8094
53.7978
53.7074
53.6873
53.7360
53.7993
53.8611
53.8919
53.7976
53.7189
53.7545
53.8550
53.9637
54.249
53.9590
53.8977
53.9272
54.7
54.758
54.1153
54.256
53.9354
53.9675
54.603
54.1424
54.2220
54.2212
54.1712
54.1580
54.1932
54.2728
54.3660
54.3239
54.1940
54.1749
54.2832
54.3814
54.4354
54.4227
54.3562
54.3485
54.3899
54.4460
54.5204
54.5284
54.4229
54.3725
54.4335
54.5289
54.6144
54.6361
54.5676
54.5369
54.5811
54.6416
54.6988
54.6932
54.5650
54.5030
54.5633
54.6686
54.7470
54.7871
54.7361
54.6924
54.6956
54.7407
54.8221
54.8681
54.7612
54.6672
54.7093
54.8200
54.8937
54.9159
54.8378
54.7912
54.8254
54.8873
54.9559
55.15
54.9209
54.8391
54.8543
54.9412
55.379
55.1157
55.599
54.9969
55.120
55.814
55.1546
55.1971
55.1057
55.238
55.589
55.1559
55.2409
55.3132
55.2910
55.2422
55.2355
55.2827
55.3734
55.4508
55.3648
55.2546
55.2813
55.3901
55.4708
55.5077
55.4482
55.4049
55.4210
55.4715
55.5444
55.6088
55.5380
55.4368
55.4410
55.5283
55.6227
55.6904
55.6383
55.5785
55.5925
55.6481
55.7121
55.7469
55.6424
55.5516
55.5835
55.6747
55.7515
55.8104
55.7691
55.7181
55.7163
55.7547
55.8371
55.8901
55.7763
55.6710
55.7162
55.8268
55.9007
55.9198
55.8424
55.7998
55.8367
55.8948
55.9631
55.9992
55.9089
55.8382
55.8700
55.9598
56.566
56.1009
56.330
55.9918
56.269
56.947
56.1627
56.1586
56.433
56.33
56.766
56.1706
56.2445
56.2859
56.2444
56.2141
56.2366
56.3061
56.4048
56.3894
56.2620
56.2303
56.3242
56.4223
56.4720
56.4445
56.3822
56.3846
56.4258
56.4858
56.5569
56.5193
56.4141
56.4078
56.4860
56.5744
56.6409
56.6025
56.5498
56.5621
56.6132
56.6774
56.7077
56.5979
56.5038
56.5395
56.6355
56.7099
56.7593
56.7140
56.6696
56.6706
56.7128
56.7952
56.8258
56.7075
56.6358
56.7006
56.7987
56.8585
56.8421
56.7650
56.7526
56.7944
56.8487
56.9138
56.8972
56.7928
56.7601
56.8257
56.9234
57.129
56.9939
56.9215
56.9166
56.9782
57.529
57.940
56.9989
56.9121
56.9439
57.399
57.1283
57.1951
57.1648
57.1165
57.1190
57.1666
57.2567
57.2903
57.1741
57.1156
57.1902
57.2902
57.3537
57.3410
57.2812
57.2755
57.3078
57.3593
57.4210
57.3944
57.2988
57.2831
57.3576
57.4473
57.5142
57.4688
57.4110
57.4270
57.4776
57.5443
57.5669
57.4513
57.3719
57.4175
57.5055
57.5809
57.6146
57.5589
57.5229
57.5322
57.5772
57.6623
57.6474
57.5246
57.4887
57.5747
57.6642
57.7122
57.6659
57.6042
57.6131
57.6577
57.7199
57.7753
57.7073
57.6258
57.6394
57.7195
57.8170
57.8680
57.7991
57.7601
57.7980
57.8658
57.9259
57.8847
57.7719
57.7632
57.8448
57.9283
58.35
58.24
57.9569
57.9458
57.9802
58.644
58.1254
58.250
57.9361
57.9881
58.911
58.1583
58.1661
58.1007
58.740
58.963
58.1487
58.2174
58.2047
58.1011
58.741
58.1441
58.2302
58.2949
58.2568
58.2036
58.2163
58.2666
58.3225
58.3284
58.2083
58.1380
58.1829
58.2707
58.3462
58.3646
58.3091
58.2833
58.2963
58.3462
58.4237
58.3634
58.2478
58.2500
58.3430
58.4226
58.4476
58.3787
58.3354
58.3504
58.4026
58.4681
58.4807
58.3834
58.3273
58.3738
58.4583
58.5485
58.5388
58.4704
58.4667
58.5126
58.5732
58.6041
58.5110
58.4398
58.4907
58.5810
58.6538
58.6986
58.6641
58.6267
58.6344
58.6990
58.7884
58.7433
58.6249
58.6247
58.7235
58.7972
58.8273
58.7701
58.7283
58.7454
58.7898
58.8580
58.8782
58.7849
58.7276
58.7729
58.8571
58.9402
58.9241
58.8581
58.8541
58.9015
58.9615
58.9820
58.8729
58.7930
58.8261
58.9094
58.9824
59.88
58.9594
58.9258
58.9298
58.9809
59.596
59.94
58.8893
58.8818
58.9746
59.459
59.645
59.23
58.9650
58.9826
59.335
59.1011
59.1019
58.9985
58.9564
59.136
59.1029
59.1846
59.1544
59.872
59.864
59.1434
59.2051
59.2113
59.1057
59.642
59.1264
59.2039
59.2721
59.2868
59.2504
59.2319
59.2588
59.3361
59.4029
59.3036
59.2075
59.2501
59.3455
59.4096
59.4054
59.3451
59.3260
59.3539
59.4075
59.4701
59.4222
59.3282
59.3242
59.3974
59.4823
59.5203
59.4612
59.4244
59.4442
59.4969
59.5506
59.4945
59.3811
59.3684
59.4415
59.5163
59.5809
59.5488
59.4992
59.4871
59.5194
59.5890
59.5923
59.4709
59.4230
59.4977
59.5758
59.6137
59.5586
59.5091
59.5193
59.5537
59.6087
59.6383
59.5451
59.4806
59.5176
59.6001
59.6861
59.6841
59.6146
59.6033
59.6471
59.7051
59.7279
59.6274
59.5679
59.6097
59.6874
59.7599
59.7911
59.7433
59.7184
59.7442
59.8149
59.8795
59.7902
59.6895
59.7299
59.8243
59.8880
59.8839
59.8212
59.7999
59.8241
59.8787
59.9397
59.8896
59.7914
59.7904
59.8676
59.9471
59.9752
59.9147
59.8815
59.9039
59.9525
59.9982
59.9312
59.8243
59.8185
59.8954
59.9733
60.203
59.9780
59.9338
59.9286
59.9656
60.377
60.72
59.8861
59.8660
59.9510
60.259
60.472
59.9778
59.9370
59.9566
59.9993
60.567
60.485
59.9477
59.9095
59.9652
60.440
60.1151
60.758
60.220
60.353
60.900
60.1483
60.1241
60.122
59.9911
60.577
60.1333
60.2045
60.1926
60.1455
60.1383
60.1759
60.2591
60.2715
60.1497
60.1025
60.1761
60.2595
60.3033
60.2578
60.2047
60.2134
60.2486
60.3054
60.3274
60.2365
60.1772
60.2218
60.2975
60.3619
60.3328
60.2778
60.2793
60.3129
60.3603
60.3617
60.2458
60.1897
60.2422
60.3186
60.3790
60.3712
60.3131
60.2908
60.3069
60.3717
60.4023
60.2912
60.2174
60.2745
60.3594
60.4069
60.3668
60.3023
60.3066
60.3428
60.3929
60.4219
60.3286
60.2583
60.2883
60.3693
60.4532
60.4430
60.3677
60.3523
60.3950
60.4541
60.4701
60.3672
60.3100
60.3574
60.4352
60.5082
60.5197
60.4712
60.4503
60.4751
60.5503
60.5954
60.4832
60.4076
60.4635
60.5498
60.5975
60.5691
60.5110
60.5060
60.5329
60.5881
60.6282
60.5436
60.4648
60.4938
60.5674
60.6373
60.6292
60.5623
60.5440
60.5793
60.6330
60.6432
60.5321
60.4576
60.4987
60.5748
60.6390
60.6371
60.5849
60.5554
60.5668
60.6239
60.6661
60.5611
60.4753
60.5207
60.6005
60.6456
60.6110
60.5455
60.5434
60.5801
60.6269
60.6611
60.5784
60.5016
60.5158
60.5912
60.6756
60.6700
60.5993
60.5832
60.6268
60.6825
60.6915
60.5872
60.5315
60.5845
60.6624
60.7277
60.7431
60.6966
60.6655
60.6863
60.7575
60.8008
60.6939
60.6203
60.6804
60.7665
60.8131
60.7747
60.7221
60.7204
60.7486
60.8026
60.8314
60.7423
60.6773
60.7115
60.7823
60.8505
60.8265
60.7647
60.7516
60.7838
60.8349
60.8413
60.7265
60.6651
60.7157
60.7884
60.8529
60.8379
60.7866
60.7621
60.7761
60.8446
60.8669
60.7473
60.6824
60.7395
60.8197
60.8591
60.8086
60.7538
60.7635
60.7963
60.8474
60.8600
60.7598
60.6964
60.7354
60.8096
60.8894
60.8595
60.7963
60.7933
60.8403
60.8942
60.8727
60.7645
60.7372
60.7992
60.8695
60.9364
60.9237
60.8828
60.8674
60.9078
60.9837
60.9798
60.8539
60.8138
60.8934
60.9686
60.9999
60.9408
60.8919
60.8969
60.9346
60.9984
60.9895
60.8877
60.8496
60.8968
60.9695
61.229
60.9721
60.9255
60.9316
60.9702
61.168
60.9653
60.8445
60.8238
60.8944
60.9657
61.168
60.9771
60.9262
60.9111
60.9352
61.24
60.9655
60.8411
60.8211
60.9012
60.9669
60.9791
60.9082
60.8735
60.8866
60.9202
60.9719
60.9436
60.8478
60.8219
60.8781
60.9559
61.64
60.9447
60.8961
60.9144
60.9642
61.33
60.9368
60.8420
60.8484
60.9153
60.9791
61.323
60.9966
60.9548
60.9531
61.58
61.801
61.102
60.8947
60.9083
60.9952
61.606
61.588
60.9950
60.9675
60.9861
61.315
61.854
61.205
60.9218
60.9182
60.9885
61.617
61.782
61.124
60.9770
61.21
61.445
61.734
60.9777
60.8841
60.9063
60.9806
61.470
61.651
61.84
60.9678
60.9703
61.218
61.749
60.9738
60.8771
60.9077
60.9884
61.390
61.150
60.9491
60.9382
60.9656
61.111
61.469
60.9626
60.8771
60.8918
60.9592
61.442
61.483
60.9745
60.9535
60.9950
61.484
61.569
60.9505
60.8889
60.9402
61.174
61.901
61.951
61.427
61.162
61.304
61.1042
61.1366
61.253
60.9670
61.221
61.991
61.1455
61.1070
61.489
61.366
61.619
61.1190
61.1371
61.378
60.9804
61.151
61.860
61.1514
61.1107
61.498
61.460
61.822
61.1332
61.1063
60.9857
60.9483
61.71
61.703
61.1229
61.840
61.308
61.157
61.366
61.1043
61.909
60.9662
60.9276
60.9999
61.710
61.909
61.258
60.9765
60.9819
61.156
61.720
61.532
60.9487
60.9135
60.9659
61.453
61.1007
61.451
60.9940
61.79
61.531
61.939
61.307
60.9343
60.9418
61.79
61.759
61.1267
61.868
61.380
61.372
61.858
61.1600
61.1006
60.9793
60.9850
61.710
61.1351
61.1434
61.803
61.480
61.579
61.950
61.1495
61.966
60.9986
60.9849
61.452
61.1163
61.1378
61.726
61.379
61.589
61.1043
61.1356
61.382
60.9372
60.9562
61.298
61.945
61.1129
61.529
61.87
60.9995
61.433
61.1023
61.121
60.9036
60.9285
61.111
61.625
61.383
60.9673
60.9468
60.9716
61.114
61.485
60.9668
60.8760
60.8832
60.9449
61.263
61.358
60.9634
60.9373
60.9757
61.325
61.454
60.9433
60.8799
60.9145
60.9822
61.444
61.545
61.21
60.9701
60.9895
61.605
61.1013
60.9915
60.9146
60.9625
61.435
61.895
61.550
60.9959
60.9828
61.71
61.620
61.853
60.9909
60.9217
60.9472
61.123
61.795
61.562
60.9915
60.9771
61.76
61.613
61.531
60.9285
60.8738
60.9294
60.9972
61.499
61.277
60.9727
60.9373
60.9548
61.215
61.267
60.9050
60.8489
60.9103
60.9880
61.186
60.9636
60.9093
60.9165
60.9475
60.9958
60.9939
60.8831
60.8269
60.8744
60.9537
61.236
60.9782
60.9160
60.9163
60.9591
61.92
60.9748
60.8695
60.8479
60.9059
60.9727
61.352
61.71
60.9555
60.9435
60.9826
61.588
61.325
60.9152
60.8935
60.9666
61.311
61.530
60.9868
60.9446
60.9527
60.9902
61.407
61.85
60.9025
60.8709
60.9268
60.9989
61.444
60.9871
60.9379
60.9491
60.9833
61.181
60.9489
60.8410
60.8344
60.9038
60.9635
61.32
60.9517
60.8986
60.8822
60.9135
60.9801
60.9318
60.8054
60.7908
60.8603
60.9192
60.9184
60.8453
60.8127
60.8294
60.8670
60.9175
60.8626
60.7546
60.7404
60.8016
60.8823
60.9158
60.8446
60.7972
60.8206
60.8721
60.9084
60.8298
60.7273
60.7401
60.8149
60.8823
60.9190
60.8727
60.8269
60.8326
60.8921
60.9570
60.8744
60.7637
60.7796
60.8648
60.9201
60.9173
60.8466
60.8163
60.8344
60.8806
60.9311
60.8656
60.7655
60.7641
60.8315
60.9027
60.9129
60.8399
60.8043
60.8242
60.8679
60.8907
60.7898
60.6899
60.7029
60.7762
60.8474
60.8709
60.8166
60.7716
60.7668
60.8127
60.8657
60.7713
60.6618
60.6786
60.7561
60.8081
60.7903
60.7193
60.6980
60.7208
60.7661
60.8111
60.7348
60.6429
60.6473
60.7153
60.7955
60.8008
60.7229
60.6896
60.7226
60.7788
60.8046
60.7011
60.6316
60.6644
60.7290
60.7961
60.8229

END