=~=~=~=~=~=~=~=~=~=~=~= PuTTY log 2025.04.24 08:47:14 =~=~=~=~=~=~=~=~=~=~=~=




Speed (Hz)
60.1206
60.555
60.870
60.1475
60.1995
60.2710
60.3648
60.4380
60.4927
60.5541
60.6436
60.7228
60.7905
60.8358
60.8461
60.8318
60.8109
60.7815
60.7367
60.6939
60.6723
60.6221
60.5673
60.5451
60.5189
60.4790
60.4567
60.4940
60.5536
60.5931
60.5992
60.6060
60.5959
60.5243
60.4415
60.3790
60.3223
60.2591
60.2024
60.1827
60.1711
60.1489
60.1397
60.1722
60.2007
60.2351
60.2686
60.2725
60.2555
60.2266
60.1830
60.1417
60.1017
60.844
60.584
60.189
59.9863
59.9717
59.9569
59.9355
59.9615
60.369
60.1039
60.1322
60.1533
60.1660
60.1343
60.711
60.221
59.9848
59.9360
59.8903
59.8745
59.8852
59.8847
59.8877
59.9214
59.9638
60.175
60.699
60.932
60.842
60.739
60.612
60.342
60.39
59.9921
59.9839
59.9437
59.9196
59.9181
59.9168
59.8996
59.9184
59.9872
60.693
60.1125
60.1389
60.1692
60.1673
60.1163
60.623
60.317
59.9987
59.9473
59.9224
59.9318
59.9219
59.9133
59.9323
59.9814
60.306
60.829
60.1186
60.1263
60.1151
60.954
60.654
60.288
59.9916
59.9759
59.9509
59.9189
59.9036
59.8930
59.8769
59.8721
59.9309
60.66
60.653
60.921
60.1070
60.1223
60.825
60.232
59.9902
59.9482
59.9031
59.8573
59.8496
59.8564
59.8493
59.8571
59.9011
59.9549
60.119
60.601
60.738
60.673
60.600
60.380
60.127
59.9816
59.9719
59.9534
59.9150
59.9028
59.9084
59.8949
59.8812
59.9180
60.15
60.744
60.1166
60.1413
60.1633
60.1367
60.802
60.334
59.9997
59.9561
59.8955
59.8788
59.8906
59.8857
59.8846
59.9121
59.9632
60.155
60.641
60.883
60.822
60.645
60.351
60.59
59.9636
59.9364
59.9265
59.8906
59.8571
59.8499
59.8457
59.8275
59.8484
59.9248
60.125
60.633
60.866
60.1050
60.951
60.430
59.9864
59.9541
59.9152
59.8624
59.8316
59.8406
59.8556
59.8545
59.8711
59.9271
59.9751
60.277
60.549
60.606
60.466
60.358
60.104
59.9751
59.9505
59.9515
59.9237
59.8987
59.8940
59.9009
59.8906
59.8964
59.9544
60.427
60.1069
60.1399
60.1681
60.1821
60.1340
60.718
60.303
59.9890
59.9369
59.8952
59.8918
59.8948
59.8849
59.8873
59.9298
59.9740
60.281
60.756
60.1002
60.958
60.817
60.542
60.152
59.9814
59.9673
59.9510
59.9232
59.8937
59.8835
59.8743
59.8591
59.8902
59.9668
60.406
60.814
60.1068
60.1276
60.1117
60.493
60.68
59.9694
59.9337
59.8760
59.8562
59.8596
59.8589
59.8604
59.8866
59.9344
59.9895
60.407
60.727
60.760
60.695
60.516
60.266
59.9949
59.9807
59.9662
59.9382
59.9217
59.9225
59.9245
59.9201
59.9320
60.45
60.827
60.1350
60.1626
60.1828
60.1772
60.1224
60.752
60.402
60.36
59.9533
59.9254
59.9299
59.9281
59.9187
59.9335
59.9831
60.318
60.754
60.1154
60.1234
60.1085
60.791
60.484
60.148
59.9828
59.9745
59.9495
59.9144
59.8995
59.8988
59.8875
59.8803
59.9338
60.145
60.803
60.1013
60.1206
60.1324
60.923
60.410
60.31
59.9637
59.9151
59.8712
59.8685
59.8765
59.8796
59.8887
59.9295
59.9803
60.260
60.699
60.953
60.847
60.724
60.491
60.179
59.9806
59.9675
59.9512
59.9160
59.9091
59.9196
59.9169
59.9027
59.9409
60.161
60.897
60.1310
60.1586
60.1766
60.1506
60.938
60.470
60.155
59.9725
59.9237
59.9173
59.9289
59.9247
59.9229
59.9538
60.35
60.546
60.1039
60.1331
60.1292
60.1148
60.893
60.606
60.258
60.73
59.9995
59.9631
59.9305
59.9176
59.9134
59.8962
59.9082
59.9758
60.608
60.992
60.1236
60.1458
60.1415
60.890
60.376
59.9999
59.9651
59.9151
59.8903
59.9001
59.9081
59.9083
59.9187
59.9708
60.250
60.797
60.1133
60.1133
60.1024
60.903
60.632
60.346
60.10
59.9949
59.9646
59.9367
59.9377
59.9382
59.9242
59.9265
59.9830
60.633
60.1325
60.1676
60.1918
60.2076
60.1631
60.1030
60.576
60.149
59.9613
59.9242
59.9312
59.9339
59.9307
59.9363
59.9826
60.302
60.798
60.1297
60.1478
60.1357
60.1131
60.867
60.506
60.147
60.61
59.9843
59.9526
59.9218
59.9160
59.9069
59.8971
59.9308
60.44
60.812
60.1140
60.1309
60.1465
60.1215
60.575
60.189
59.9801
59.9440
59.8907
59.8792
59.8925
59.8916
59.8922
59.9182
59.9745
60.211
60.650
60.913
60.920
60.855
60.760
60.484
60.178
59.9926
59.9794
59.9448
59.9176
59.9201
59.9212
59.9055
59.9258
59.9997
60.802
60.1364
60.1735
60.2012
60.1901
60.1330
60.785
60.477
60.108
59.9576
59.9368
59.9434
59.9465
59.9414
59.9562
60.95
60.537
60.1015
60.1296
60.1360
60.1156
60.946
60.694
60.317
60.44
59.9896
59.9599
59.9295
59.9081
59.9028
59.8858
59.8858
59.9376
60.198
60.773
60.1011
60.1269
60.1418
60.977
60.404
60.70
59.9758
59.9257
59.8806
59.8734
59.8788
59.8744
59.8817
59.9173
59.9755
60.263
60.770
60.1018
60.900
60.796
60.611
60.346
60.87
60.20
59.9814
59.9450
59.9228
59.9319
59.9269
59.9100
59.9426
60.225
60.1024
60.1487
60.1826
60.2055
60.1792
60.1150
60.734
60.388
59.9953
59.9441
59.9285
59.9332
59.9208
59.9113
59.9396
59.9866
60.345
60.891
60.1204
60.1154
60.967
60.787
60.488
60.144
59.9968
59.9860
59.9526
59.9237
59.9065
59.8986
59.8733
59.8774
59.9427
60.303
60.739
60.936
60.1154
60.1105
60.611
60.104
59.9772
59.9421
59.8932
59.8668
59.8782
59.8776
59.8729
59.8796
59.9244
59.9788
60.213
60.587
60.675
60.555
60.410
60.222
59.9963
59.9766
59.9715
59.9460
59.9123
59.9018
59.9046
59.8859
59.8815
59.9405
60.258
60.917
60.1253
60.1570
60.1720
60.1321
60.715
60.392
60.106
59.9616
59.9190
59.9201
59.9199
59.9040
59.9019
59.9374
59.9834
60.349
60.798
60.979
60.978
60.874
60.681
60.350
60.12
59.9832
59.9654
59.9273
59.8988
59.8851
59.8673
59.8512
59.8872
59.9700
60.438
60.869
60.1105
60.1265
60.1022
60.475
60.38
59.9710
59.9268
59.8761
59.8634
59.8702
59.8651
59.8580
59.8863
59.9336
59.9882
60.373
60.671
60.660
60.607
60.537
60.315
60.20
59.9865
59.9778
59.9458
59.9098
59.9023
59.8989
59.8756
59.8990
59.9709
60.561
60.1070
60.1370
60.1693
60.1654
60.1147
60.629
60.279
59.9901
59.9310
59.8974
59.9076
59.9003
59.8897
59.8988
59.9467
59.9942
60.444
60.912
60.1002
60.946
60.765
60.491
60.187
59.9886
59.9798
59.9471
59.9042
59.8915
59.8830
59.8691
59.8619
59.9093
59.9960
60.649
60.916
60.1156
60.1264
60.910
60.378
60.9
59.9628
59.9121
59.8728
59.8682
59.8788
59.8724
59.8736
59.9049
59.9564
60.78
60.541
60.745
60.647
60.562
60.422
60.144
59.9837
59.9668
59.9523
59.9257
59.9130
59.9205
59.9089
59.8929
59.9322
60.98
60.855
60.1294
60.1561
60.1800
60.1580
60.1018
60.552
60.254
59.9797
59.9259
59.9149
59.9235
59.9175
59.9087
59.9376
59.9801
60.221
60.832
60.1149
60.1119
60.973
60.778
60.535
60.254
60.20
59.9932
59.9575
59.9253
59.9136
59.9027
59.8845
59.8981
59.9627
60.458
60.1019
60.1239
60.1450
60.1397
60.915
60.378
60.3
59.9660
59.9120
59.8815
59.8924
59.8953
59.8839
59.8979
59.9462
59.9934
60.504
60.861
60.887
60.745
60.596
60.416
60.159
59.9904
59.9836
59.9577
59.9312
59.9261
59.9283
59.9150
59.9148
59.9672
60.503
60.1202
60.1521
60.1801
60.1929
60.1534
60.939
60.608
60.286
59.9774
59.9362
59.9334
59.9356
59.9188
59.9206
59.9594
60.31
60.565
60.1056
60.1253
60.1154
60.1001
60.833
60.559
60.229
60.76
59.9840
59.9564
59.9328
59.9282
59.9149
59.8909
59.9298
60.64
60.855
60.1191
60.1433
60.1552
60.1327
60.805
60.416
60.27
59.9705
59.9251
59.9031
59.9025
59.9002
59.8982
59.9285
59.9762
60.324
60.834
60.1022
60.977
60.886
60.685
60.474
60.187
60.3
59.9907
59.9550
59.9316
59.9365
59.9365
59.9223
59.9378
60.83
60.900
60.1421
60.1688
60.1939
60.1831
60.1291
60.868
60.549
60.210
59.9617
59.9317
59.9275
59.9249
59.9153
59.9339
59.9801
60.250
60.744
60.1153
60.1203
60.1058
60.848
60.674
60.419
60.158
60.104
59.9808
59.9448
59.9210
59.9100
59.8916
59.8799
59.9328
60.157
60.759
60.987
60.1236
60.1369
60.985
60.427
60.102
59.9791
59.9303
59.8857
59.8820
59.8903
59.8855
59.8801
59.9143
59.9627
60.84
60.505
60.728
60.707
60.648
60.478
60.249
59.9991
59.9881
59.9684
59.9340
59.9175
59.9182
59.9073
59.8920
59.9332
60.116
60.842
60.1252
60.1522
60.1776
60.1529
60.987
60.722
60.332
59.9877
59.9301
59.9224
59.9211
59.9148
59.9114
59.9379
59.9919
60.457
60.923
60.1191
60.1157
60.993
60.816
60.584
60.271
60.78
60.10
59.9599
59.9202
59.8978
59.8822
59.8609
59.8832
59.9561
60.490
60.973
60.1256
60.1469
60.1389
60.831
60.349
60.20
59.9746
59.9251
59.8908
59.8917
59.8972
59.8890
59.8992
59.9359
59.9820
60.375
60.740
60.862
60.849
60.711
60.576
60.374
60.148
60.73
59.9809
59.9512
59.9457
59.9516
59.9391
59.9351
59.9897
60.742
60.1394
60.1722
60.1956
60.1976
60.1471
60.872
60.448
60.102
59.9621
59.9198
59.9174
59.9185
59.9169
59.9191
59.9654
60.97
60.627
60.1054
60.1179
60.1045
60.836
60.587
60.302
59.9986
59.9919
59.9693
59.9412
59.9188
59.9125
59.9039
59.8870
59.9179
59.9932
60.686
60.1001
60.1133
60.1293
60.936
60.279
59.9831
59.9450
59.9149
59.8644
59.8564
59.8661
59.8700
59.8713
59.9049
59.9539
60.118
60.596
60.813
60.780
60.663
60.467
60.225
59.9870
59.9677
59.9589
59.9278
59.9061
59.9135
59.9141
59.9004
59.9199
59.9863
60.706
60.1223
60.1517
60.1870
60.1770
60.1178
60.677
60.323
60.3
59.9459
59.9179
59.9240
59.9233
59.9159
59.9330
59.9814
60.354
60.910
60.1316
60.1319
60.1204
60.991
60.751
60.455
60.151
60.99
59.9756
59.9399
59.9250
59.9205
59.9037
59.9018
59.9578
60.451
60.1121
60.1328
60.1524
60.1657
60.1248
60.680
60.308
59.9956
59.9493
59.9066
59.9009
59.9155
59.9070
59.9166
59.9619
60.77
60.605
60.1071
60.1330
60.1265
60.1188
60.976
60.692
60.418
60.278
60.22
59.9718
59.9634
59.9713
59.9691
59.9572
59.9972
60.808
60.1538
60.1913
60.2144
60.2333
60.2067
60.1559
60.1198
60.845
60.421
59.9913
59.9863
59.9911
59.9825
59.9792
60.93
60.546
60.988
60.1477
60.1680
60.1682
60.1518
60.1244
60.943
60.580
60.396
60.354
60.48
59.9785
59.9702
59.9533
59.9379
59.9564
60.249
60.1019
60.1436
60.1700
60.1939
60.1765
60.1234
60.765
60.489
60.88
59.9559
59.9374
59.9496
59.9516
59.9449
59.9674
60.143
60.581
60.1090
60.1485
60.1568
60.1491
60.1346
60.1104
60.787
60.500
60.480
60.215
59.9979
59.9933
59.9957
59.9773
59.9857
60.489
60.1322
60.1920
60.2208
60.2422
60.2424
60.1864
60.1219
60.852
60.489
59.9949
59.9585
59.9563
59.9611
59.9568
59.9621
60.102
60.636
60.1127
60.1492
60.1612
60.1506
60.1286
60.1026
60.649
60.310
60.278
59.9983
59.9686
59.9440
59.9332
59.9151
59.9067
59.9482
60.347
60.1127
60.1445
60.1614
60.1780
60.1384
60.766
60.359
59.9970
59.9575
59.9030
59.8945
59.9026
59.9025
59.9104
59.9463
60.28
60.518
60.936
60.1145
60.1112
60.1038
60.851
60.573
60.227
60.116
59.9979
59.9636
59.9489
59.9605
59.9553
59.9378
59.9658
60.399
60.1180
60.1670
60.1971
60.2198
60.1993
60.1409
60.934
60.586
60.217
59.9651
59.9481
59.9578
59.9532
59.9462
59.9727
60.202
60.685
60.1268
60.1582
60.1599
60.1412
60.1242
60.916
60.550
60.213
60.71
59.9809
59.9482
59.9298
59.9223
59.9059
59.9142
59.9709
60.594
60.1149
60.1393
60.1620
60.1601
60.1094
60.598
60.241
59.9915
59.9407
59.9009
59.9073
59.9150
59.9123
59.9246
59.9727
60.221
60.850
60.1315
60.1459
60.1434
60.1318
60.1057
60.735
60.424
60.341
60.90
59.9821
59.9713
59.9755
59.9586
59.9492
59.9934
60.762
60.1379
60.1789
60.2017
60.2197
60.1799
60.1156
60.775
60.452
60.2
59.9540
59.9463
59.9483
59.9461
59.9489
59.9900
60.387
60.964
60.1518
60.1667
60.1518
60.1281
60.1014
60.713
60.358
60.194
59.9984
59.9587
59.9330
59.9256
59.9117
59.8919
59.9207
59.9997
60.818
60.1231
60.1410
60.1649
60.1397
60.841
60.344
59.9987
59.9628
59.9098
59.8893
59.8929
59.8910
59.8910
59.9177
59.9670
60.164
60.691
60.948
60.1008
60.872
60.716
60.400
60.92
59.9829
59.9830
59.9561
59.9358
59.9334
59.9304
59.9126
59.9287
59.9972
60.816
60.1352
60.1659
60.1908
60.1861
60.1280
60.760
60.363
60.19
59.9425
59.9131
59.9235
59.9303
59.9195
59.9322
59.9796
60.301
60.919
60.1280
60.1411
60.1326
60.1154
60.852
60.556
60.256
60.122
59.9873
59.9538
59.9281
59.9213
59.9081
59.9024
59.9481
60.366
60.1055
60.1372
60.1595
60.1696
60.1275
60.696
60.344
59.9964
59.9497
59.9068
59.8980
59.9027
59.8989
59.9009
59.9358
59.9892
60.469
60.959
60.1186
60.1161
60.1120
60.912
60.643
60.388
60.288
60.122
59.9822
59.9678
59.9754
59.9630
59.9500
59.9831
60.594
60.1364
60.1775
60.2073
60.2333
60.2119
60.1603
60.1230
60.891
60.478
59.9944
59.9844
59.9816
59.9726
59.9608
59.9860
60.333
60.796
60.1364
60.1656
60.1557
60.1500
60.1295
60.998
60.647
60.475
60.383
60.37
59.9680
59.9528
59.9419
59.9254
59.9348
60.45
60.860
60.1379
60.1646
60.1956
60.1957
60.1430
60.864
60.516
60.147
59.9598
59.9285
59.9297
59.9308
59.9282
59.9390
59.9865
60.397
60.892
60.1325
60.1368
60.1348
60.1265
60.1011
60.760
60.415
60.380
60.61
59.9772
59.9686
59.9687
59.9515
59.9460
59.9997
60.847
60.1532
60.1829
60.2133
60.2202
60.1754
60.1234
60.894
60.494
60.45
59.9619
59.9618
59.9629
59.9545
59.9565
59.9956
60.427
60.920
60.1435
60.1541
60.1364
60.1208
60.980
60.639
60.325
60.201
59.9994
59.9599
59.9352
59.9252
59.9141
59.8951
59.9262
60.63
60.802
60.1150
60.1424
60.1579
60.1337
60.719
60.318
59.9987
59.9551
59.9031
59.8870
59.8907
59.8883
59.8883
59.9166
59.9613
60.138
60.636
60.905
60.994
60.1047
60.893
60.722
60.404
60.159
60.4
59.9623
59.9320
59.9294
59.9294
59.9068
59.9308
60.69
60.909
60.1442
60.1754
60.2097
60.2029
60.1520
60.1041
60.695
60.309
59.9716
59.9466
59.9536
59.9481
59.9355
59.9476
60.19
60.471
60.1064
60.1472
60.1529
60.1426
60.1247
60.1005
60.717
60.438
60.268
59.9969
59.9552
59.9389
59.9367
59.9133
59.9133
59.9694
60.556
60.1190
60.1535
60.1765
60.1903
60.1499
60.922
60.525
60.181
59.9621
59.9147
59.9082
59.9110
59.9077
59.9069
59.9462
60.22
60.520
60.1009
60.1226
60.1191
60.1126
60.958
60.668
60.379
60.349
60.69
59.9678
59.9508
59.9581
59.9459
59.9337
59.9721
60.508
60.1252
60.1662
60.1948
60.2186
60.1950
60.1374
60.1002
60.661
60.260
59.9734
59.9536
59.9561
59.9516
59.9436
59.9713
60.210
60.769
60.1314
60.1598
60.1490
60.1371
60.1104
60.804
60.395
60.181
60.86
59.9720
59.9423
59.9227
59.9149
59.8930
59.9096
59.9819
60.557
60.997
60.1289
60.1508
60.1428
60.874
60.401
60.81
59.9766
59.9152
59.8826
59.8872
59.8901
59.8830
59.9048
59.9588
60.105
60.639
60.963
60.1011
60.911
60.814
60.589
60.263
60.19
60.10
59.9725
59.9408
59.9367
59.9354
59.9227
59.9305
59.9950
60.845
60.1431
60.1778
60.2104
60.2213
60.1791
60.1244
60.822
60.435
59.9838
59.9493
59.9490
59.9534
59.9395
59.9474
59.9867
60.374
60.890
60.1366
60.1560
60.1420
60.1252
60.1053
60.720
60.433
60.345
60.77
59.9781
59.9530
59.9442
59.9263
59.9129
59.9503
60.328
60.1046
60.1335
60.1571
60.1769
60.1565
60.1025
60.596
60.189
59.9713
59.9212
59.9063
59.9087
59.9031
59.8981
59.9265
59.9786
60.376
60.896
60.1219
60.1225
60.1172
60.1042
60.843
60.564
60.446
60.324
59.9958
59.9778
59.9793
59.9717
59.9465
59.9668
60.360
60.1160
60.1603
60.1925
60.2200
60.2070
60.1573
60.1126
60.699
60.286
59.9768
59.9549
59.9593
59.9561
59.9398
59.9651
60.109
60.603
60.1189
60.1537
60.1557
60.1498
60.1268
60.991
60.655
60.459
60.357
59.9985
59.9617
59.9355
59.9289
59.9127
59.9141
59.9709
60.539
60.1081
60.1309
60.1542
60.1592
60.1097
60.603
60.320
60.61
59.9573
59.9204
59.9221
59.9173
59.9091
59.9162
59.9522
60.7
60.573
60.1010
60.1132
60.1111
60.1055
60.817
60.528
60.224
60.104
59.9869
59.9515
59.9373
59.9421
59.9295
59.9225
59.9704
60.510
60.1212
60.1606
60.1900
60.2078
60.1735
60.1168
60.828
60.459
60.8
59.9528
59.9459
59.9471
59.9358
59.9333
59.9670
60.141
60.613
60.1138
60.1349
60.1260
60.1112
60.934
60.660
60.347
60.158
60.72
59.9719
59.9424
59.9323
59.9238
59.9029
59.9247
60.35
60.777
60.1133
60.1370
60.1595
60.1420
60.879
60.428
60.109
59.9801
59.9219
59.9010
59.8983
59.9020
59.8920
59.9100
59.9524
60.10
60.546
60.910
60.1031
60.964
60.828
60.599
60.389
60.186
60.80
59.9736
59.9450
59.9473
59.9447
59.9255
59.9415
60.8
60.876
60.1454
60.1759
60.2036
60.2087
60.1573
60.1049
60.698
60.259
59.9681
59.9269
59.9295
59.9315
59.9271
59.9296
59.9771
60.250
60.789
60.1256
60.1469
60.1347
60.1142
60.883
60.638
60.282
60.133
59.9868
59.9528
59.9332
59.9323
59.9141
59.9025
59.9432
60.333
60.999
60.1285
60.1449
60.1638
60.1254
60.692
60.298
60.27
59.9551
59.9100
59.8976
59.9096
59.9065
59.9066
59.9438
59.9970
60.501
60.979
60.1152
60.1060
60.988
60.792
60.500
60.207
60.91
59.9878
59.9537
59.9330
59.9403
59.9358
59.9179
59.9507
60.294
60.1072
60.1492
60.1786
60.2071
60.1854
60.1190
60.785
60.472
60.64
59.9526
59.9387
59.9436
59.9384
59.9342
59.9516
60.23
60.451
60.974
60.1269
60.1298
60.1139
60.866
60.563
60.205
59.9939
59.9887
59.9526
59.9236
59.9102
59.9021
59.8826
59.8876
59.9535
60.317
60.833
60.1065
60.1273
60.1295
60.766
60.203
59.9810
59.9448
59.8944
59.8631
59.8678
59.8700
59.8632
59.8779
59.9272
59.9861
60.342
60.753
60.875
60.750
60.615
60.401
60.118
59.9808
59.9787
59.9577
59.9242
59.9173
59.9240
59.9105
59.9061
59.9550
60.421
60.1116
60.1430
60.1698
60.1821
60.1483
60.821
60.432
60.54
59.9539
59.9102
59.9053
59.9170
59.9136
59.9137
59.9518
59.9997
60.605
60.1096
60.1253
60.1105
60.903
60.609
60.241
59.9901
59.9752
59.9618
59.9269
59.8988
59.8965
59.8929
59.8773
59.9130
59.9829
60.586
60.957
60.1140
60.1352
60.1163
60.513
60.85
59.9731
59.9357
59.8859
59.8626
59.8773
59.8724
59.8685
59.9008
59.9556
60.164
60.660
60.967
60.998
60.961
60.851
60.557
60.219
60.9
59.9972
59.9658
59.9360
59.9347
59.9351
59.9152
59.9270
59.9923
60.710
60.1255
60.1593
60.1858
60.1862
60.1317
60.814
60.467
60.86
59.9535
59.9210
59.9257
59.9277
59.9243
59.9387
59.9895
60.396
60.888
60.1307
60.1449
60.1284
60.1101
60.863
60.506
60.162
60.82
59.9765
59.9414
59.9175
59.9113
59.8923
59.8832
59.9283
60.73
60.788
60.1085
60.1315
60.1376
60.984
60.410
60.14
59.9672
59.9255
59.8822
59.8741
59.8801
59.8801
59.8779
59.9158
59.9642
60.158
60.603
60.727
60.708
60.607
60.433
60.237
59.9973
59.9861
59.9737
59.9430
59.9261
59.9223
59.9112
59.8908
59.9234
60.11
60.787
60.1298
60.1589
60.1771
60.1643
60.1070
60.620
60.286
59.9864
59.9335
59.9143
59.9158
59.9093
59.9005
59.9375
59.9821
60.255
60.736
60.1075
60.998
60.855
60.640
60.307
59.9999
59.9738
59.9674
59.9388
59.9014
59.8900
59.8917
59.8716
59.8796
59.9427
60.266
60.821
60.1022
60.1218
60.1234
60.703
60.164
59.9884
59.9542
59.9045
59.8676
59.8730
59.8833
59.8792
59.8792
59.9192
59.9763
60.314
60.695
60.730
60.680
60.605
60.446
60.147
59.9869
59.9847
59.9552
59.9253
59.9210
59.9305
59.9190
59.9101
59.9594
60.366
60.1014
60.1266
60.1550
60.1709
60.1313
60.730
60.374
60.34
59.9548
59.9168
59.9198
59.9261
59.9210
59.9259
59.9606
60.80
60.551
60.940
60.1198
60.1109
60.897
60.626
60.339
60.39
59.9866
59.9737
59.9457
59.9212
59.9077
59.8952
59.8708
59.9016
59.9812
60.596
60.912
60.1071
60.1264
60.1081
60.523
60.104
59.9758
59.9370
59.8819
59.8662
59.8708
59.8733
59.8669
59.8870
59.9360
59.9901
60.428
60.684
60.697
60.593
60.473
60.250
59.9977
59.9799
59.9750
59.9447
59.9239
59.9311
59.9302
59.9154
59.9229
59.9885
60.627
60.1098
60.1397
60.1604
60.1560
60.1088
60.537
60.168
59.9846
59.9329
59.8994
59.9080
59.9085
59.9018
59.9145
59.9586
60.51
60.548
60.982
60.1013
60.938
60.729
60.427
60.91
59.9741
59.9670
59.9441
59.9098
59.8911
59.8869
59.8846
59.8729
59.9205
60.40
60.712
60.936
60.1127
60.1268
60.879
60.275
59.9885
59.9476
59.9097
59.8678
59.8673
59.8769
59.8734
59.8797
59.9142
59.9651
60.204
60.672
60.854
60.805
60.667
60.506
60.189
59.9858
59.9747
59.9623
59.9317
59.9109
59.9199
59.9146
59.8946
59.9292
60.90
60.910
60.1394
60.1695
60.1943
60.1758
60.1145
60.708
60.331
59.9912
59.9344
59.9169
59.9193
59.9202
59.9137
59.9373
59.9838
60.280
60.860
60.1202
60.1258
60.1071
60.847
60.574
60.201
59.9954
59.9891
59.9566
59.9260
59.9186
59.9138
59.8983
59.9014
59.9650
60.485
60.994
60.1181
60.1376
60.1301
60.806
60.312
60.29
59.9717
59.9250
59.8908
59.8937
59.8967
59.8909
59.8966
59.9427
59.9968
60.512
60.814
60.904
60.947
60.840
60.644
60.349
60.90
60.6
59.9774
59.9378
59.9309
59.9346
59.9226
59.9097
59.9614
60.464
60.1122
60.1494
60.1777
60.1901
60.1484
60.896
60.619
60.288
59.9840
59.9378
59.9350
59.9396
59.9285
59.9273
59.9621
60.139
60.692
60.1186
60.1332
60.1263
60.1094
60.887
60.571
60.295
60.145
59.9987
59.9561
59.9304
59.9173
59.9038
59.8793
59.8970
59.9699
60.424
60.821
60.1002
60.1188
60.1063
60.484
60.86
59.9800
59.9398
59.8876
59.8736
59.8869
59.8873
59.8835
59.9074
59.9519
60.22
60.541
60.804
60.877
60.858
60.730
60.547
60.191
60.10
59.9887
59.9602
59.9289
59.9303
59.9347
59.9159
59.9342
59.9963
60.751
60.1231
60.1541
60.1820
60.1760
60.1226
60.699
60.338
59.9976
59.9496
59.9077
59.9146
59.9126
59.9099
59.9224
59.9695
60.172
60.674
60.1087
60.1145
60.1062
60.883
60.649
60.358
60.76
60.58
59.9742
59.9358
59.9150
59.9027
59.8812
59.8682
59.9137
59.9937
60.577
60.831
60.1068
60.1164
60.726
60.233
59.9864
59.9576
59.9215
59.8794
59.8693
59.8746
59.8779
59.8777
59.9085
59.9518
60.30
60.526
60.737
60.706
60.701
60.517
60.251
59.9976
59.9866
59.9698
59.9390
59.9160
59.9169
59.9074
59.8863
59.9220
59.9949
60.712
60.1088
60.1420
60.1683
60.1546
60.967
60.524
60.178
59.9738
59.9120
59.8904
59.8931
59.8880
59.8753
59.9003
59.9487
59.9943
60.452
60.793
60.780
60.679
60.493
60.207
59.9898
59.9651
59.9606
59.9342
59.9040
59.8784
59.8672
59.8468
59.8476
59.9119
59.9935
60.464
60.728
60.981
60.988
60.530
60.74
59.9746
59.9441
59.8965
59.8716
59.8749
59.8799
59.8731
59.8807
59.9312
59.9800
60.240
60.632
60.754
60.681
60.563
60.393
60.128
59.9814
59.9706
59.9405
59.9057
59.9005
59.9067
59.8950
59.8887
59.9376
60.177
60.796
60.1180
60.1418
60.1645
60.1273
60.778
60.352
59.9951
59.9506
59.8996
59.9009
59.9092
59.8977
59.8932
59.9292
59.9787
60.279
60.763
60.984
60.924
60.769
60.564
60.301
59.9973
59.9819
59.9628
59.9278
59.8980
59.8870
59.8728
59.8499
59.8678
59.9424
60.206
60.656
60.912
60.1124
60.985
60.452
59.9978
59.9634
59.9261
59.8710
59.8484
59.8520
59.8483
59.8433
59.8655
59.9170
59.9674
60.194
60.589
60.648
60.604
60.521
60.301
59.9997
59.9821
59.9727
59.9385
59.9053
59.9086
59.9101
59.8903
59.9051
59.9734
60.539
60.1097
60.1345
60.1631
60.1615
60.1141
60.612
60.248
59.9887
59.9349
59.9033
59.9065
59.9102
59.9089
59.9178
59.9625
60.99
60.618
60.1032
60.1165
60.1009
60.883
60.650
60.289
59.9919
59.9827
59.9596
59.9286
59.9113
59.9012
59.8815
59.8740
59.9143
59.9993
60.674
60.951
60.1170
60.1254
60.902
60.363
59.9975
59.9701
59.9285
59.8797
59.8715
59.8863
59.8817
59.8800
59.9140
59.9606
60.143
60.577
60.837
60.812
60.732
60.565
60.357
59.9988
59.9812
59.9658
59.9394
59.9141
59.9245
59.9191
59.9066
59.9367
60.138
60.939
60.1287
60.1596
60.1810
60.1633
60.1082
60.642
60.324
59.9981
59.9442
59.9228
59.9358
59.9334
59.9256
59.9473
59.9938
60.406
60.843
60.1151
60.1119
60.1032
60.817
60.517
60.232
59.9933
59.9861
59.9585
59.9293
59.9113
59.8999
59.8857
59.8901
59.9579
60.410
60.942
60.1203
60.1455
60.1456
60.990
60.429
60.142
59.9757
59.9247
59.8859
59.8807
59.8905
59.8738
59.8761
59.9190
59.9666
60.175
60.560
60.706
60.720
60.664
60.455
60.155
59.9906
59.9948
59.9715
59.9413
59.9312
59.9369
59.9310
59.9257
59.9714
60.541
60.1174
60.1525
60.1840
60.1992
60.1594
60.1020
60.664
60.318
59.9821
59.9330
59.9282
59.9299
59.9165
59.9112
59.9493
60.18
60.513
60.988
60.1272
60.1211
60.1022
60.780
60.446
60.91
59.9975
59.9805
59.9506
59.9200
59.9041
59.8879
59.8787
59.9008
59.9758
60.543
60.956
60.1222
60.1460
60.1293
60.784
60.321
60.17
59.9675
59.9182
59.8921
59.8924
59.8932
59.8836
59.9070
59.9550
60.103
60.640
60.960
60.991
60.948
60.799
60.596
60.324
60.100
59.9962
59.9604
59.9314
59.9286
59.9292
59.9001
59.9097
59.9746
60.676
60.1261
60.1522
60.1769
60.1765
60.1273
60.793
60.460
60.86
59.9513
59.9179
59.9238
59.9227
59.9071
59.9130
59.9505
60.21
60.532
60.969
60.1157
60.1014
60.890
60.631
60.314
60.61
59.9985
59.9724
59.9315
59.9143
59.9099
59.8957
59.8885
59.9365
60.271
60.869
60.1144
60.1335
60.1476
60.1154
60.597
60.224
59.9945
59.9500
59.9043
59.8967
59.9043
59.8939
59.8958
59.9329
59.9815
60.289
60.717
60.908
60.827
60.739
60.537
60.291
60.6
59.9903
59.9759
59.9438
59.9247
59.9359
59.9292
59.9183
59.9540
60.311
60.1114
60.1419
60.1653
60.1863
60.1622
60.998
60.573
60.267
59.9848
59.9329
59.9214
59.9282
59.9248
59.9225
59.9437
59.9936
60.448
60.908
60.1177
60.1150
60.1059
60.899
60.609
60.281
60.120
60.56
59.9742
59.9446
59.9249
59.9178
59.8972
59.9014
59.9626
60.515
60.1005
60.1178
60.1412
60.1334
60.823
60.313
59.9966
59.9607
59.9129
59.8779
59.8868
59.8949
59.8910
59.9065
59.9554
60.100
60.616
60.971
60.1070
60.945
60.832
60.630
60.301
60.31
59.9948
59.9719
59.9411
59.9393
59.9448
59.9335
59.9298
59.9812
60.689
60.1398
60.1770
60.1996
60.2068
60.1669
60.1089
60.716
60.385
59.9901
59.9492
59.9448
59.9528
59.9497
59.9518
59.9886
60.380
60.938
60.1380
60.1515
60.1351
60.1164
60.920
60.637
60.264
60.167
59.9925
59.9650
59.9364
59.9303
59.9270
59.9078
59.9383
60.171
60.884
60.1247
60.1431
60.1680
60.1414
60.855
60.429
60.130
59.9813
59.9290
59.9062
59.9193
59.9239
59.9217
59.9464
59.9909
60.394
60.876
60.1159
60.1227
60.1121
60.931
60.719
60.385
60.237
60.124
59.9832
59.9534
59.9540
59.9540
59.9329
59.9495
60.131
60.965
60.1543
60.1762
60.2036
60.2008
60.1424
60.918
60.573
60.249
59.9730
59.9453
59.9510
59.9556
59.9462
59.9638
60.94
60.589
60.1065
60.1481
60.1524
60.1385
60.1172
60.800
60.491
60.186
60.97
59.9799
59.9474
59.9333
59.9332
59.9206
59.9134
59.9674
60.435
60.1012
60.1232
60.1417
60.1563
60.1148
60.509
60.149
59.9836
59.9419
59.8933
59.8866
59.9000
59.8977
59.8986
59.9322
59.9814
60.285
60.690
60.847
60.809
60.664
60.489
60.228
59.9930
59.9834
59.9690
59.9348
59.9231
59.9291
59.9296
59.9208
59.9564
60.288
60.982
60.1381
60.1655
60.1875
60.1673
60.1045
60.603
60.281
59.9906
59.9406
59.9271
59.9355
59.9315
59.9305
59.9468
59.9999
60.510
60.1050
60.1347
60.1281
60.1121
60.889
60.544
60.251
59.9992
59.9844
59.9540
59.9155
59.9050
59.9007
59.8828
59.8941
59.9620
60.460
60.923
60.1063
60.1273
60.1233
60.692
60.169
59.9876
59.9561
59.9068
59.8805
59.8820
59.8877
59.8874
59.9012
59.9481
59.9997
60.519
60.900
60.957
60.912
60.741
60.512
60.268
59.9981
59.9970
59.9726
59.9396
59.9345
59.9398
59.9257
59.9183
59.9683
60.495
60.1165
60.1496
60.1726
60.1847
60.1442
60.819
60.404
60.65
59.9569
59.9153
59.9123
59.9153
59.9017
59.9068
59.9442
59.9968
60.495
60.956
60.1168
60.995
60.802
60.535
60.207
59.9869
59.9742
59.9563
59.9243
59.9042
59.9013
59.8869
59.8659
59.9004
59.9738
60.523
60.854
60.1032
60.1220
60.973
60.371
59.9961
59.9661
59.9318
59.8872
59.8677
59.8805
59.8809
59.8799
59.9010
59.9513
60.62
60.486
60.767
60.713
60.716
60.560
60.339
59.9995
59.9796
59.9728
59.9385
59.9182
59.9261
59.9256
59.9061
59.9196
59.9893
60.725
60.1252
60.1524
60.1783
60.1791
60.1231
60.693
60.311
59.9988
59.9402
59.9170
59.9177
59.9154
59.9047
59.9218
59.9636
60.123
60.646
60.992
60.1088
60.968
60.809
60.486
60.110
59.9793
59.9708
59.9390
59.9070
59.8842
59.8806
59.8662
59.8618
59.9070
59.9895
60.555
60.820
60.1057
60.1129
60.711
60.188
59.9747
59.9496
59.9076
59.8668
59.8578
59.8621
59.8533
59.8577
59.8956
59.9443
60.7
60.492
60.701
60.679
60.590
60.428
60.133
59.9820
59.9659
59.9533
59.9199
59.9078
59.9109
59.9067
59.8926
59.9274
60.5
60.806
60.1291
60.1536
60.1749
60.1538
60.919
60.449
60.18
59.9591
59.9003
59.8878
59.8939
59.8929
59.8902
59.9210
59.9678
60.128
60.589
60.869
60.862
60.700
60.522
60.266
59.9926
59.9744
59.9677
59.9359
59.9011
59.8877
59.8850
59.8660
59.8788
59.9511
60.328
60.883
60.1106
60.1305
60.1258
60.769
60.244
59.9932
59.9615
59.9113
59.8755
59.8814
59.8866
59.8832
59.8964
59.9465
59.9911
60.442
60.730
60.798
60.674
60.495
60.283
59.9958
59.9700
59.9650
59.9376
59.9065
59.9011
59.9025
59.8907
59.8903
59.9501
60.342
60.1050
60.1423
60.1790
60.1960
60.1537
60.903
60.485
60.101
59.9677
59.9299
59.9287
59.9304
59.9232
59.9255
59.9592
60.15
60.537
60.1016
60.1210
60.1123
60.984
60.738
60.358
59.9969
59.9793
59.9591
59.9206
59.8952
59.8860
59.8709
59.8503
59.8815
59.9640
60.441
60.810
60.996
60.1206
60.1009
60.471
60.44
59.9716
59.9293
59.8810
59.8618
59.8691
59.8631
59.8607
59.8867
59.9359
59.9896
60.405
60.813
60.798
60.715
60.571
60.343
60.36
59.9824
59.9733
59.9337
59.9069
59.9040
59.9043
59.8855
59.8998
59.9623
60.470
60.1033
60.1388
60.1596
60.1577
60.1091
60.584
60.203
59.9803
59.9254
59.8989
59.9055
59.9043
59.8925
59.8992
59.9460
59.9992
60.511
60.932
60.1047
60.914
60.750
60.537
60.248
59.9903
59.9786
59.9523
59.9230
59.9062
59.8977
59.8800
59.8747
59.9214
60.70
60.717
60.949
60.1079
60.1158
60.795
60.228
59.9915
59.9556
59.9075
59.8600
59.8582
59.8713
59.8669
59.8706
59.9046
59.9638
60.234
60.659
60.882
60.931
60.806
60.688
60.401
60.67
59.9911
59.9720
59.9428
59.9306
59.9371
59.9304
59.9136
59.9393
60.150
60.902
60.1327
60.1595
60.1817
60.1584
60.1048
60.577
60.293
59.9825
59.9311
59.9082
59.9111
59.9002
59.8949
59.9178
59.9696
60.140
60.687
60.1026
60.1053
60.914
60.688
60.446
60.104
59.9912
59.9874
59.9540
59.9156
59.9022
59.8951
59.8745
59.8853
59.9473
60.251
60.766
60.1021
60.1256
60.1275
60.819
60.302
59.9919
59.9532
59.9057
59.8712
59.8685
59.8757
59.8708
59.8731
59.9135
59.9688
60.212
60.551
60.700
60.680
60.571
60.352
60.93
59.9835
59.9883
59.9680
59.9328
59.9189
59.9149
59.8981
59.8883
59.9394
60.245
60.993
60.1312
60.1657
60.1839
60.1473
60.931
60.533
60.150
59.9652
59.9201
59.9160
59.9136
59.9053
59.9044
59.9456
59.9990
60.496
60.1004
60.1275
60.1218
60.1131
60.916
60.576
60.287
60.168
59.9993
59.9607
59.9300
59.9195
59.9107
59.8810
59.9055
59.9831
60.585
60.962
60.1176
60.1399
60.1210
60.641
60.140
59.9806
59.9437
59.8888
59.8687
59.8777
59.8792
59.8816
59.9036
59.9487
60.47
60.543
60.825
60.876
60.816
60.661
60.477
60.162
59.9992
59.9940
59.9553
59.9281
59.9252
59.9188
59.8962
59.9078
59.9759
60.561
60.1142
60.1428
60.1758
60.1765
60.1248
60.740
60.414
60.26
59.9562
59.9257
59.9243
59.9163
59.9084
59.9201
59.9635
60.152
60.625
60.1031
60.1126
60.986
60.811
60.620
60.334
60.55
59.9985
59.9726
59.9390
59.9210
59.9101
59.8934
59.8850
59.9300
60.141
60.834
60.1103
60.1330
60.1492
60.1124
60.598
60.243
59.9877
59.9373
59.8880
59.8728
59.8744
59.8639
59.8658
59.8967
59.9562
60.169
60.671
60.911
60.917
60.853
60.689
60.461
60.172
60.68
59.9856
59.9531
59.9380
59.9435
59.9339
59.9191
59.9462
60.213
60.978
60.1423
60.1731
60.1987
60.1745
60.1096
60.668
60.328
59.9908
59.9389
59.9281
59.9320
59.9297
59.9253
59.9507
59.9973
60.420
60.907
60.1178
60.1211
60.1047
60.874
60.628
60.313
60.121
60.91
59.9780
59.9472
59.9339
59.9216
59.9019
59.9129
59.9832
60.658
60.1201
60.1501
60.1675
60.1643
60.1094
60.574
60.253
59.9889
59.9323
59.9012
59.9060
59.9138
59.9102
59.9194
59.9643
60.191
60.704
60.1069
60.1154
60.1074
60.993
60.794
60.526
60.217
60.172
59.9930
59.9629
59.9565
59.9603
59.9400
59.9303
59.9839
60.688
60.1362
60.1759
60.2033
60.2150
60.1783
60.1223
60.827
60.405
59.9874
59.9398
59.9355
59.9384
59.9216
59.9243
59.9601
60.109
60.643
60.1149
60.1313
60.1208
60.1121
60.862
60.616
60.268
60.185
59.9956
59.9546
59.9214
59.9101
59.8960
59.8752
59.9059
59.9880
60.582
60.966
60.1196
60.1469
60.1344
60.798
60.389
60.57
59.9702
59.9204
59.8977
59.8987
59.8935
59.8993
59.9262
59.9779
60.305
60.757
60.1019
60.1040
60.1032
60.920
60.705
60.356
60.131
59.9998
59.9628
59.9363
59.9231
59.9241
59.9052
59.9219
59.9933
60.810
60.1360
60.1642
60.1949
60.1898
60.1389
60.890
60.522
60.128
59.9611
59.9317
59.9346
59.9272
59.9193
59.9364
59.9872
60.342
60.826
60.1174
60.1270
60.1134
60.923
60.675
60.409
60.83
60.16
59.9679
59.9310
59.9126
59.9065
59.8882
59.8809
59.9312
60.183
60.812
60.1071
60.1321
60.1383
60.1037
60.504
60.129
59.9835
59.9434
59.8955
59.8909
59.8933
59.8808
59.8852
59.9252
59.9712
60.193
60.621
60.795
60.752
60.650
60.531
60.297
60.8
59.9884
59.9758
59.9461
59.9300
59.9347
59.9246
59.9159
59.9528
60.301
60.1108
60.1549
60.1796
60.1993
60.1691
60.1098
60.716
60.400
60.16
59.9424
59.9336
59.9418
59.9343
59.9260
59.9583
60.82
60.544
60.1007
60.1311
60.1314
60.1166
60.949
60.610
60.249
60.47
59.9975
59.9690
59.9400
59.9244
59.9148
59.8954
59.9030
59.9698
60.527
60.1026
60.1242
60.1443
60.1376
60.800
60.355
60.39
59.9666
59.9098
59.8743
59.8778
59.8880
59.8892
59.9139
59.9676
60.221
60.798
60.1139
60.1192
60.1068
60.952
60.727
60.439
60.115
60.103
59.9826
59.9466
59.9414
59.9393
59.9218
59.9166
59.9745
60.610
60.1271
60.1556
60.1816
60.1920
60.1481
60.876
60.559
60.217
59.9661
59.9269
59.9289
59.9359
59.9239
59.9319
59.9724
60.213
60.733
60.1219
60.1371
60.1212
60.1077
60.865
60.570
60.224
60.83
59.9868
59.9514
59.9298
59.9183
59.9035
59.8866
59.9252
60.55
60.803
60.1099
60.1282
60.1516
60.1253
60.616
60.193
59.9843
59.9419
59.8855
59.8687
59.8761
59.8755
59.8717
59.9005
59.9539
60.75
60.582
60.873
60.934
60.856
60.744
60.487
60.211
60.30
59.9930
59.9619
59.9407
59.9443
59.9417
59.9210
59.9384
60.132
60.950
60.1479
60.1844
60.2136
60.2046
60.1475
60.944
60.569
60.214
59.9655
59.9392
59.9438
59.9338
59.9297
59.9445
59.9887
60.409
60.957
60.1343
60.1340
60.1194
60.966
60.650
60.324
60.32
59.9967
59.9664
59.9343
59.9169
59.9116
59.8958
59.9018
59.9607
60.440
60.1032
60.1284
60.1443
60.1493
60.1059
60.469
60.183
59.9844
59.9367
59.8947
59.8955
59.9067
59.9069
59.9088
59.9521
60.84
60.610
60.1038
60.1207
60.1172
60.1077
60.913
60.633
60.292
60.147
59.9953
59.9580
59.9438
59.9488
59.9391
59.9252
59.9715
60.501
60.1273
60.1735
60.2095
60.2350
60.2072
60.1454
60.1009
60.561
60.135
59.9608
59.9519
59.9507
59.9398
59.9341
59.9714
60.251
60.792
60.1366
60.1622
60.1613
60.1485
60.1228
60.925
60.534
60.304
60.146
59.9745
59.9445
59.9308
59.9192
59.9098
59.9221
59.9855
60.679
60.1089
60.1293
60.1523
60.1425
60.875
60.413
60.48
59.9699
59.9146
59.8809
59.8841
59.8892
59.8787
59.9006
59.9521
60.28
60.562
60.873
60.988
60.910
60.826
60.564
60.257
60.41
60.11
59.9724
59.9395
59.9330
59.9390
59.9234
59.9247
59.9859
60.706
60.1324
60.1659
60.1933
60.1995
60.1455
60.889
60.484
60.95
59.9518
59.9215
59.9282
59.9239
59.9149
59.9186
59.9631
60.150
60.644
60.1159
60.1277
60.1178
60.971
60.638
60.253
59.9881
59.9839
59.9635
59.9307
59.9035
59.8985
59.8878
59.8778
59.9204
60.63
60.819
60.1127
60.1302
60.1517
60.1184
60.581
60.150
59.9770
59.9238
59.8744
59.8611
59.8703
59.8721
59.8747
59.9085
59.9633
60.81
60.584
60.784
60.770
60.656
60.492
60.259
59.9968
59.9851
59.9833
59.9500
59.9324
59.9385
59.9410
59.9221
59.9492
60.242
60.1092
60.1544
60.1811
60.2045
60.1931
60.1329
60.835
60.486
60.131
59.9661
59.9455
59.9520
59.9461
59.9401
59.9603
60.118
60.589
60.1124
60.1485
60.1487
60.1343
60.1202
60.947
60.551
60.285
60.236
59.9905
59.9572
59.9353
59.9287
59.9062
59.9156
59.9648
60.533
60.1087
60.1309
60.1527
60.1516
60.1069
60.537
60.185
59.9824
59.9363
59.8935
59.8866
59.8923
59.8879
59.8960
59.9465
60.31
60.548
60.945
60.1072
60.1066
60.905
60.736
60.435
60.110
60.32
59.9802
59.9415
59.9260
59.9263
59.9199
59.9149
59.9642
60.489
60.1258
60.1679
60.1961
60.2207
60.1864
60.1295
60.860
60.515
59.9994
59.9445
59.9410
59.9464
59.9375
59.9317
59.9614
60.101
60.652
60.1179
60.1425
60.1340
60.1204
60.970
60.649
60.263
60.98
59.9948
59.9563
59.9271
59.9182
59.9077
59.8862
59.9106
59.9857
60.641
60.1065
60.1322
60.1541
60.1324
60.726
60.323
59.9881
59.9450
59.8889
59.8648
59.8726
59.8802
59.8759
59.8955
59.9496
60.18
60.451
60.785
60.841
60.756
60.600
60.366
60.26
59.9798
59.9748
59.9472
59.9160
59.9122
59.9101
59.8935
59.9057
59.9718
60.569
60.1128
60.1415
60.1720
60.1815
60.1313
60.727
60.360
59.9953
59.9452
59.9097
59.9169
59.9215
59.9175
59.9286
59.9669
60.205
60.694
60.1110
60.1193
60.1109
60.1000
60.743
60.385
60.38
59.9945
59.9665
59.9281
59.9049
59.9018
59.8921
59.8793
59.9220
60.34
60.774
60.1043
60.1227
60.1409
60.1089
60.532
60.105
59.9871
59.9512
59.8975
59.8812
59.8822
59.8795
59.8809
59.9150
59.9647
60.245
60.726
60.1008
60.985
60.888
60.736
60.460
60.194
60.38
59.9876
59.9547
59.9323
59.9321
59.9255
59.9141
59.9366
60.116
60.906
60.1372
60.1697
60.1957
60.1821
60.1151
60.613
60.265
59.9893
59.9297
59.9152
59.9189
59.9084
59.8965
59.9124
59.9611
60.103
60.654
60.1028
60.1012
60.891
60.744
60.513
60.183
59.9950
59.9894
59.9537
59.9215
59.8979
59.8916
59.8697
59.8671
59.9262
60.61
60.574
60.773
60.1036
60.1083
60.695
60.209
59.9926
59.9656
59.9159
59.8813
59.8758
59.8813
59.8708
59.8726
59.9131
59.9617
60.136
60.608
60.727
60.687
60.608
60.450
60.161
59.9882
59.9854
59.9677
59.9326
59.9175
59.9153
59.9077
59.8964
59.9399
60.242
60.946
60.1266
60.1549
60.1672
60.1305
60.758
60.371
60.74
59.9635
59.9164
59.9140
59.9208
59.9079
59.9058
59.9449
59.9913
60.456
60.975
60.1269
60.1206
60.971
60.743
60.451
60.117
59.9897
59.9832
59.9481
59.9179
59.9017
59.8957
59.8728
59.8946
59.9618
60.402
60.835
60.1054
60.1295
60.1192
60.679
60.257
59.9936
59.9580
59.9102
59.8825
59.8908
59.8918
59.8881
59.9078
59.9517
59.9992
60.544
60.889
60.925
60.889
60.742
60.513
60.254
60.53
59.9979
59.9686
59.9348
59.9260
59.9292
59.9058
59.9116
59.9722
60.477
60.1023
60.1281
60.1663
60.1758
60.1347
60.846
60.526
60.190
59.9670
59.9353
59.9357
59.9363
59.9203
59.9232
59.9650
60.129
60.640
60.1076
60.1165
60.1129
60.1017
60.774
60.485
60.220
60.150
59.9971
59.9584
59.9357
59.9239
59.9059
59.8921
59.9359
60.128
60.825
60.1114
60.1355
60.1497
60.1238
60.687
60.335
60.31
59.9687
59.9219
59.9085
59.9046
59.9043
59.8984
59.9288
59.9718
60.243
60.719
60.898
60.885
60.785
60.572
60.296
60.55
59.9933
59.9828
59.9448
59.9284
59.9319
59.9213
59.9043
59.9346
60.113
60.920
60.1403
60.1735
60.1944
60.1827
60.1269
60.830
60.471
60.66
59.9495
59.9272
59.9331
59.9249
59.9117
59.9260
59.9722
60.158
60.673
60.1053
60.1036
60.916
60.770
60.571
60.219
60.22
59.9979
59.9619
59.9225
59.9063
59.8909
59.8773
59.8742
59.9317
60.173
60.681
60.890
60.1175
60.1314
60.874
60.408
60.53
59.9697
59.9134
59.8755
59.8727
59.8726
59.8702
59.8830
59.9267
59.9778
60.311
60.743
60.855
60.813
60.711
60.540
60.272
60.11
59.9870
59.9658
59.9313
59.9173
59.9237
59.9166
59.9058
59.9511
60.364
60.1069
60.1426
60.1720
60.1886
60.1562
60.973
60.566
60.253
59.9836
59.9381
59.9291
59.9350
59.9211
59.9184
59.9522
60.79
60.605
60.1149
60.1356
60.1320
60.1194
60.963
60.628
60.272
60.51
59.9911
59.9548
59.9251
59.9113
59.8986
59.8762
59.9085
59.9815
60.660
60.1053
60.1245
60.1389
60.1232
60.676
60.293
59.9947
59.9638
59.9072
59.8906
59.8999
59.9061
59.9055
59.9256
59.9770
60.258
60.738
60.959
60.1040
60.985
60.873
60.633
60.373
60.177
60.98
59.9776
59.9535
59.9470
59.9478
59.9235
59.9311
59.9947
60.806
60.1319
60.1628
60.1885
60.1933
60.1479
60.1009
60.714
60.405
59.9842
59.9488
59.9528
59.9532
59.9456
59.9559
59.9973
60.447
60.989
60.1466
60.1621
60.1570
60.1385
60.1117
60.773
60.459
60.307
60.36
59.9728
59.9542
59.9461
59.9299
59.9137
59.9594
60.436
60.1150
60.1503
60.1724
60.1848
60.1539
60.973
60.611
60.304
59.9920
59.9412
59.9246
59.9272
59.9201
59.9191
59.9475
59.9986
60.506
60.922
60.1068
60.1100
60.953
60.811
60.650
60.408
60.322
60.150
59.9813
59.9607
59.9631
59.9573
59.9411
59.9731
60.557
60.1324
60.1700
60.2047
60.2321
60.2098
60.1455
60.1007
60.709
60.317
59.9750
59.9542
59.9650
59.9589
59.9481
59.9770
60.265
60.739
60.1239
60.1501
60.1557
60.1460
60.1221
60.956
60.578
60.351
60.254
59.9969
59.9637
59.9449
59.9341
59.9108
59.9181
59.9816
60.693
60.1243
60.1432
60.1656
60.1712
60.1254
60.756
60.410
60.76
59.9545
59.9232
59.9238
59.9273
59.9257
59.9418
59.9898
60.371
60.916
60.1396
60.1509
60.1499
60.1386
60.1220
60.1041
60.820
60.805
60.584
60.311
60.220
60.404
60.389
60.450
60.1144
60.2100
60.2869
60.3376
60.3804
60.4009
60.3715
60.3325
60.3172
60.3007
60.2660
60.2522
60.2701
60.2958
60.3065
60.3271
60.3911
60.4534
60.5173
60.5835
60.6211
60.6349
60.6443
60.6498
60.6547
60.6523
60.6786
60.6885
60.6943
60.7166
60.7423
60.7615
60.7855
60.8752
60.9902
61.853
61.1448
61.2066
61.2453
61.2414
61.2304
61.2406
61.2560
61.2504
61.2696
61.3172
61.3728
61.4172
61.4747
61.5677
61.6636
61.7623
61.8407
61.8868
61.9277
61.9596
61.9846
62.79
62.556
62.1077
62.1363
62.1823
62.2485
62.2948
62.3389
62.4450
62.5852
62.7202
62.8102
62.8981
62.9610
62.9695
62.9784
63.133
63.443
63.647
63.1151
63.1929
63.2627
63.3299
63.4283
63.5444
63.6681
63.7896
63.8855
63.9463
63.9979
64.445
64.866
64.1420
64.2182
64.2701
64.3216
64.3954
64.4677
64.5282
64.6457
64.8155
64.9791
65.905
65.1959
65.2819
65.3173
65.3576
65.4115
65.4734
65.5172
65.6080
65.7091
65.7982
65.8871
66.182
66.1665
66.3227
66.4458
66.5380
66.6235
66.6991
66.7726
66.8488
66.9495
67.322
67.1130
67.2255
67.3135
67.3872
67.5376
67.7318
67.8988
68.348
68.1805
68.2693
68.3076
68.3725
68.4513
68.5132
68.6011
68.7315
68.8273
68.9256
69.795
69.2483
69.4278
69.5809
69.6941
69.7957
69.8839
69.9745
70.779
70.2045
70.2957
70.3973
70.5079
70.5955
70.7226
70.9299
71.1363
71.2981
71.4452
71.5712
71.6357
71.7249
71.8339
71.9310
72.488
72.1912
72.3230
72.4421
72.6173
72.7993
72.9858
73.1308
73.2589
73.3769
73.4818
73.5875
73.7328
73.8518
73.9782
74.1245
74.2394
74.3709
74.5950
74.8270
75.82
75.1879
75.3083
75.3756
75.4888
75.6128
75.7249
75.8879
76.434
76.1704
76.3415
76.5443
76.7660
76.9552
77.954
77.2227
77.3429
77.4726
77.6377
77.7729
77.9159
78.636
78.1840
78.3577
78.6172
78.8507
79.410
79.2162
79.3115
79.4288
79.5681
79.6956
79.8634
80.408
80.1903
80.3698
80.5909
80.8150
80.9957
81.1522
81.2969
81.4319
81.5937
81.7781
81.9267
82.1040
82.2520
82.3949
82.6554
82.9127
83.1246
83.3270
83.4464
83.5703
83.7345
83.8703
84.577
84.2512
84.4113
84.6233
84.8584
85.1053
85.2979
85.4590
85.6037
85.7558
85.9620
86.1309
86.3013
86.4645
86.6075
86.8721
87.1616
87.3920
87.6090
87.7327
87.8698
88.482
88.2090
88.4178
88.6139
88.7862
89.235
89.2777
89.4987
89.6781
89.8500
90.56
90.2216
90.4043
90.5969
90.7844
90.9277
91.1968
91.4932
91.7343
91.9616
92.913
92.2505
92.4344
92.6191
92.8507
93.353
93.2503
93.5145
93.7839
93.9928
94.1664
94.3316
94.5510
94.7697
94.9655
95.1601
95.3147
95.5965
95.9110
96.1619
96.3778
96.5125
96.6993
96.8908
97.1133
97.3350
97.5263
97.7874
98.611
98.2937
98.4968
98.6788
98.8768
99.1126
99.3167
99.5327
99.6791
99.9658
100.2830
100.5625
100.7919
100.9332
101.1405
101.3330
101.5977
101.8022
102.208
102.3134
102.6010
102.8275
103.301
103.2279
103.5051
103.7246
103.9448
104.1166
104.3847
104.7415
105.218
105.2555
105.4072
105.6281
105.8344
106.903
106.2953
106.5413
106.8419
107.1035
107.3228
107.5191
107.7333
107.9864
108.2177
108.4268
108.6180
108.9721
109.2786
109.5534
109.7124
109.9201
110.1421
110.4319
110.6496
110.9134
111.2402
111.5333
111.7620
111.9649
112.2341
112.4982
112.7408
112.9150
113.1891
113.5634
113.8714
114.917
114.2698
114.5190
114.7741
115.273
115.2391
115.5426
115.8340
116.732
116.2750
116.5061
116.7617
117.134
117.1877
117.4581
117.8208
118.1453
118.3519
118.5535
118.8098
119.1118
119.3557
119.6151
119.9712
120.2719
120.5122
120.7247
121.374
121.3094
121.5471
121.7625
122.1621
122.5021
122.7602
122.9346
123.1877
123.4714
123.7275
123.9756
124.3106
124.5933
124.8352
125.342
125.3274
125.5822
125.7989
126.303
126.4245
126.7537
126.9565
127.1657
127.4219
127.7491
127.9785
128.3021
128.6586
128.9346
129.1591
129.4680
129.7742
130.390
130.2470
130.6730
131.358
131.3096
131.5145
131.7884
132.1087
132.3545
132.6530
132.9868
133.2482
133.4486
133.7362
134.81
134.2503
134.4631
134.8548
135.2016
135.3912
135.6265
135.9204
136.2366
136.4792
136.8452
137.1702
137.4244
137.6884
138.337
138.3348
138.5296
138.9517
139.3356
139.6103
139.8389
140.1354
140.4713
140.7045
141.505
141.3719
141.6315
141.8636
142.1749
142.4645
142.6279
143.198
143.3861
143.6184
143.8543
144.1519
144.4608
144.6996
145.803
145.3887
145.6221
145.9311
146.2520
146.4955
146.7738
147.2028
147.5437
147.7370
148.325
148.3769
148.6082
148.9243
149.2281
149.4729
149.7038
150.104
150.2821
150.4475
150.8300
151.1670
151.3365
151.6030
151.9454
152.1643
152.4677
152.7849
153.202
153.2809
153.6160
153.8670
154.676
154.4558
154.7655
154.9278
155.2076
155.5327
155.7216
156.0
156.2124
156.3816
156.6139
156.8261
156.9534
157.1582
157.4470
157.6404
157.7294
157.8315
158.127
158.466
158.1894
158.3880
158.6213
159.962
159.2799
159.3842
159.6749
159.9098
159.9132
160.1761
160.2292
160.3161
160.2678
160.3768
160.2410
160.3792
160.2976
160.1761
160.1501
160.1338
160.1361
160.662
160.1210
160.1194
160.267
159.9547
160.4
159.8476
160.420
159.8768
159.9141
159.8005
160.387
159.7470
160.172
159.8385
160.233
159.7639
159.9230
159.6247
159.8117
159.5826
159.5670
159.4218
159.4884
159.3973
159.3422
159.4162
159.3958
159.4075
159.3001
159.4115
159.2397
159.5052
159.3429
159.4228
159.2997
159.5694
159.2746
159.5395
159.3613
159.5096
159.2698
159.4049
159.1597
159.2770
159.1611
159.1532
159.446
159.515
159.740
158.9489
159.1024
159.389
159.1217
158.9740
159.1469
158.9166
159.2089
158.9888
159.1084
158.9364
159.1960
158.9226
159.1271
158.9780
159.761
158.8923
158.9343
158.8323
158.8197
158.8762
158.7814
158.7633
158.6729
158.8261
158.6041
158.8292
158.6698
158.8220
158.5986
158.8135
158.5436
158.8192
158.6302
158.7210
158.5297
158.6929
158.5275
158.5803
158.5914
158.5876
158.5729
158.4962
158.5577
158.3876
158.6054
158.4184
158.4950
158.3291
158.5654
158.2463
158.4810
158.3006
158.4507
158.2155
158.3530
158.1414
158.2439
158.2114
158.1695
158.1287
158.1524
158.2578
158.1364
158.3437
158.2409
158.3567
158.1734
158.3504
158.962
158.3614
158.1095
158.2134
157.9743
158.1343
157.8963
157.9584
157.9112
157.9471
157.9020
157.8494
157.9026
157.7786
158.111
157.8720
157.9676
157.8565
158.1022
157.8290
158.910
157.8735
158.301
157.7949
157.9198
157.6983
157.7876
157.7246
157.6929
157.6308
157.5882
157.6797
157.4777
157.6842
157.6221
157.7551
157.5468
157.7539
157.4742
157.7612
157.5296
157.6191
157.4369
157.6240
157.4486
157.5086
157.5246
157.5114
157.5051
157.4093
157.5005
157.3291
157.5690
157.3600
157.4579
157.2730
157.5084
157.1947
157.4040
157.2379
157.3389
157.1298
157.2001
157.968
157.1040
157.2073
157.1267
157.1595
157.1178
157.3130
157.858
157.3410
157.1867
157.3631
157.1289
157.2980
157.357
157.2203
157.484
157.645
156.8997
156.9236
156.9222
156.8104
156.9580
156.8916
156.9930
156.8299
157.167
156.7665
157.672
156.8416
156.9638
156.7697
156.9851
156.7754
156.8633
156.8254
156.8463
156.8202
156.7588
156.8307
156.6685
156.8936
156.6785
156.7680
156.5937
156.8461
156.5239
156.7236
156.5446
156.6544
156.4633
156.5369
156.4526
156.4309
156.5560
156.4575
156.5021
156.4642
156.6943
156.4561
156.7243
156.5536
156.7174
156.4806
156.6398
156.3855
156.5116
156.3833
156.3549
156.2686
156.2501
156.3405
156.1728
156.3743
156.2546
156.3981
156.1996
156.4167
156.1522
156.4156
156.1999
156.2582
156.960
156.2333
156.1596
156.1299
156.2322
156.1774
156.2513
156.1217
156.2808
156.489
156.3271
156.924
156.1937
155.9588
156.1493
155.8963
155.9558
155.8963
155.9155
155.8910
155.8483
155.9473
155.8044
156.714
155.8941
156.113
155.8689
156.1451
155.8639
156.777
155.9276
156.66
155.8360
155.8367
155.7955
155.7139
155.8712
155.7415
155.8026
155.6648
155.8945
155.6071
155.8535
155.6660
155.8067
155.5592
155.6609
155.4877
155.5374
155.6019
155.5920
155.6008
155.5475
155.7420
155.5129
155.7825
155.5952
155.7648
155.5223
155.6805
155.4253
155.5488
155.4325
155.4000
155.3362
155.2907
155.4060
155.2174
155.4384
155.3217
155.4840
155.2688
155.4794
155.2040
155.4325
155.2512
155.2855
155.1639
155.2564
155.2848
155.2091
155.3934
155.2989
155.4310
155.2420
155.4256
155.1492
155.4105
155.1686
155.2294
155.131
155.1060
155.96
154.9299
155.472
154.9688
155.631
154.9358
155.1471
154.9261
155.2306
155.140
155.1371
154.9361
155.1257
154.9416
154.9811
155.258
154.9839
155.337
154.9162
155.558
154.8437
155.1334
154.8838
154.9683
154.7479
154.9440
154.7048
154.7688
154.7417
154.7460
154.7429
154.6642
154.8020
154.6334
154.9358
154.7308
154.8446
154.6810
154.9399
154.6733
154.8127
154.7165
154.7601
154.7028
154.6334
154.7138
154.5645
154.8144
154.6033
154.6953
154.5008
154.7368
154.4510
154.6067
154.4621
154.4972
154.4141
154.3963
154.4637
154.3654
154.6208
154.4541
154.5786
154.4501
154.7119
154.4339
154.6448
154.4804
154.5513
154.4006
154.3976
154.4036
154.3069
154.5059
154.3550
154.4435
154.2718
154.5145
154.1974
154.3942
154.2487
154.3395
154.1533
154.1688
154.1654
154.932
154.3080
154.1641
154.2701
154.1566
154.4228
154.1452
154.3839
154.1967
154.3108
154.1252
154.1421
154.982
154.110
154.1832
154.478
154.1383
153.9956
154.2355
153.9394
154.1593
153.9546
154.582
153.8817
153.9153
153.8787
153.8171
154.143
153.8746
153.9898
153.9073
154.1753
153.9073
154.1568
153.9595
154.767
153.8917
153.9179
153.8645
153.7867
153.9550
153.7888
153.8762
153.7353
153.9835
153.6830
153.9023
153.7080
153.8199
153.6441
153.6788
153.6546
153.5894
153.7977
153.6466
153.7542
153.6625
153.9416
153.6731
153.9106
153.7586
153.8647
153.6592
153.6521
153.6252
153.5421
153.7400
153.5817
153.6743
153.5221
153.7621
153.4335
153.6329
153.4483
153.5173
153.3681
153.3827
153.4100
153.3300
153.5625
153.4482
153.5794
153.4528
153.7155
153.4407
153.6439
153.4881
153.5463
153.4192
153.3817
153.4067
153.2826
153.5137
153.3210
153.4336
153.2392
153.4796
153.1793
153.3315
153.1843
153.2173
153.1434
153.1127
153.2057
153.569
153.3519
153.1728
153.3137
153.1567
153.4082
153.1252
153.2699
153.1652
153.1783
153.1554
153.885
153.1976
153.111
153.2915
153.687
153.1920
152.9781
153.1865
152.9232
152.9682
152.9343
152.9342
152.9696
152.8845
153.461
152.8487
153.1651
152.9590
153.864
152.8943
153.810
152.8712
152.9087
152.9659
152.9273
153.59
152.8719
153.419
152.8183
153.1057
152.8679
152.9567
152.7270
152.8109
152.6903
152.6138
152.7382
152.6856
152.7948
152.6352
152.8631
152.6001
152.8942
152.6708
152.7459
152.5907
152.6859
152.6914
152.5973
152.7971
152.7017
152.8536
152.6514
152.8407
152.5703
152.7795
152.5857
152.5802
152.4708
152.4424
152.5272
152.3459
152.5876
152.4625
152.6436
152.4248
152.6187
152.3636
152.5180
152.4283
152.4161
152.4103
152.3997
152.5884
152.3855
152.6729
152.5140
152.6812
152.4428
152.5627
152.3222
152.3592
152.3861
152.2855
152.3324
152.2377
152.4664
152.1755
152.4351
152.2349
152.3424
152.1463
152.2129
152.1436
152.1123
152.2914
152.1872
152.3065
152.2055
152.4818
152.1923
152.4363
152.2554
152.3194
152.1788
152.1685
152.2018
152.820
152.3274
152.1534
152.2660
152.540
152.2767
151.9720
152.847
151.9884
152.42
152.36
151.9262
152.821
151.9181
152.2404
152.202
152.1385
151.9600
152.1664
151.9669
151.9927
152.567
152.19
152.1038
151.9723
152.1563
151.8897
152.1710
151.9272
151.9984
151.7868
151.8447
151.8043
151.6830
151.8699
151.7801
151.9381
151.7541
151.9920
151.7240
151.9421
151.7718
151.7674
151.7152
151.7504
151.8945
151.7406
152.106
151.8632
152.378
151.8060
151.9522
151.7030
151.7679
151.7516
151.6733
151.6752
151.5880
151.8154
151.5568
151.8188
151.6455
151.7834
151.5596
151.6108
151.5312
151.4878
151.6881
151.5779
151.6825
151.5649
151.8370
151.5570
151.7643
151.6191
151.6718
151.5678
151.5201
151.5852
151.4306
151.7029
151.4793
151.5771
151.3950
151.6058
151.3421
151.3708
151.3658
151.3560
151.4225
151.3117
151.5098
151.3040
151.6176
151.3756
151.4481
151.2900
151.4081
151.3550
151.2964
151.4782
151.3936
151.5472
151.3634
151.5605
151.2830
151.4713
151.2805
151.2631
151.1803
151.1411
151.2740
151.704
151.3360
151.1922
151.3767
151.1320
151.2753
151.531
151.995
151.1660
151.973
151.1659
151.1158
151.3768
151.1304
151.4041
151.2134
151.2757
151.1050
151.1099
151.1081
151.266
151.2478
151.645
151.1817
150.9935
151.2171
150.9140
151.170
150.9231
150.9405
150.9503
150.8736
151.404
150.8551
151.1750
150.9680
151.818
150.8908
151.363
150.9168
150.8778
151.347
150.9497
151.924
150.9155
151.1173
150.8381
151.629
150.8526
150.8295
150.7457
150.7367
150.8683
150.6684
150.9304
150.7741
150.9505
150.7433
150.8601
150.6442
150.6924
150.7709
150.6797
150.7573
150.7029
150.9761
150.7146
150.9795
150.7807
150.8788
150.7065
150.6999
150.7154
150.5986
150.8553
150.6723
150.7884
150.5966
150.8084
150.5180
150.5753
150.5477
150.5270
150.5954
150.5044
150.6994
150.4848
150.7994
150.5600
150.6443
150.4640
150.5579
150.5351
150.4380
150.6608
150.5726
150.7369
150.5389
150.7301
150.4393
150.5843
150.4499
150.4033
150.3975
150.3490
150.5491
150.3055
150.5680
150.3682
150.5189
150.2970
150.3556
150.2763
150.2463
150.4558
150.3235
150.4532
150.3458
150.6290
150.3324
150.5038
150.3725
150.3964
150.3721
150.3078
150.4442
150.2547
150.5607
150.3401
150.4160
150.2041
150.3227
150.1775
150.1024
150.2531
150.1854
150.3329
150.1700
150.4045
150.1511
150.3620
150.1841
150.1818
150.1454
150.1591
150.3317
150.1596
150.4447
150.2747
150.4437
150.1929
150.2743
150.987
150.938
150.2210
150.833
150.1821
150.321
150.2851
149.9837
150.1554
149.9936
150.139
149.9651
149.9208
150.606
149.9040
150.2335
150.271
150.1560
149.9722
150.1382
149.9743
149.9746
150.1130
150.319
150.1794
150.106
150.2185
149.9421
150.1556
149.9474
149.9230
149.8585
149.8284
149.9833
149.7849
150.565
149.8762
150.438
149.7961
149.9016
149.7505
149.7649
149.9279
149.8145
149.9414
149.8353
150.1165
149.8428
150.237
149.8679
149.8887
149.8580
149.7934
149.9188
149.7376
150.503
149.8138
149.9016
149.6819
149.7851
149.6581
149.5782
149.7452
149.6859
149.8285
149.6401
149.8668
149.5877
149.7870
149.6337
149.6159
149.6167
149.6115
149.8247
149.6323
149.9318
149.7456
149.8989
149.6692
149.7101
149.6189
149.5659
149.7649
149.6030
149.7220
149.5517
149.7936
149.4685
149.5705
149.4886
149.4890
149.5228
149.4278
149.6271
149.4187
149.7459
149.5059
149.5949
149.4185
149.5062
149.5213
149.4403
149.6753
149.5541
149.7362
149.5142
149.6860
149.4099
149.4874
149.4627
149.3786
149.4145
149.3266
149.5694
149.3029
149.5475
149.3424
149.4322
149.2760
149.2769
149.3466
149.2396
149.5494
149.3624
149.4938
149.3236
149.5291
149.3006
149.3361
149.4144
149.3458
149.4775
149.3247
149.5325
149.2814
149.5274
149.3092
149.2782
149.1846
149.1493
149.3009
149.1052
149.3831
149.2201
149.3904
149.1484
149.2372
149.978
149.1001
149.2938
149.1978
149.3158
149.2013
149.4700
149.1849
149.3388
149.2194
149.2143
149.2403
149.1587
149.3204
149.1022
149.4112
149.1779
149.2566
149.336
149.687
149.527
148.9439
149.1660
149.467
149.2274
149.87
149.1938
148.9364
149.299
149.468
148.9880
149.624
149.189
149.2902
149.334
149.2966
149.1017
149.1603
149.321
148.9979
149.765
148.9291
149.2157
148.9876
149.1140
148.9049
149.563
148.8573
148.8349
148.9608
148.8990
149.524
148.8880
149.1173
148.8514
149.646
148.9170
148.8846
148.8808
148.8868
149.993
148.9054
149.1949
148.9923
149.1279
148.9038
148.9348
148.8887
148.8062
149.360
148.8685
148.9998
148.8111
149.300
148.7349
148.7703
148.7682
148.7212
148.8288
148.7116
148.9466
148.7120
149.57
148.7925
148.7996
148.7073
148.7461
148.8817
148.7524
149.432
148.8801
149.450
148.7871
148.8648
148.6950
148.6978
148.8490
148.7090
148.8111
148.6593
148.9110
148.6197
148.7448
148.6273
148.6182
148.6481
148.5773
148.7707
148.5561
148.8804
148.6591
148.7438
148.5808
148.6669
148.7066
148.5875
148.8458
148.7197
148.9039
148.6769
148.8188
148.5676
148.6098
148.6711
148.5522
148.6471
148.5304
148.7848
148.4665
148.6637
148.5122
148.5388
148.5022
148.4523
148.6091
148.4337
148.7702
148.5411
148.6513
148.4814
148.5971
148.5474
148.4706
148.6997
148.6106
148.7942
148.5670
148.7420
148.4695
148.5459
148.5286
148.4371
148.4953
148.4008
148.6568
148.3511
148.5799
148.4104
148.4646
148.3602
148.3357
148.4588
148.2991
148.6319
148.4252
148.5567
148.3702
148.5133
148.3989
148.3443
148.5330
148.4419
148.6192
148.4304
148.6273
148.3343
148.4630
148.3858
148.3011
148.3361
148.2585
148.5038
148.2434
148.4922
148.2944
148.3463
148.2176
148.1905
148.2971
148.1833
148.5088
148.3221
148.4388
148.2543
148.4195
148.2772
148.2779
148.4443
148.3573
148.5019
148.3120
148.5170
148.2587
148.3878
148.2771
148.1876
148.2215
148.1476
148.3887
148.1060
148.3659
148.1528
148.2346
148.836
148.940
148.1846
148.559
148.3773
148.1840
148.3252
148.1477
148.3296
148.1574
148.1527
148.3018
148.2171
148.3583
148.1786
148.3893
148.1290
148.2740
148.1520
148.911
148.1077
148.244
148.2667
147.9918
148.2551
148.592
148.1340
147.9727
147.9738
148.653
147.9442
148.2658
148.749
148.2102
148.255
148.1992
148.290
148.245
148.1934
148.1049
148.2594
148.672
148.2630
147.9897
148.1370
148.403
147.9622
147.9952
147.9190
148.1630
147.8892
148.1407
147.9352
148.170
147.8852
147.8574
147.9556
147.8419
148.1775
147.9883
148.1259
147.9172
148.525
147.9360
147.8873
148.720
147.9778
148.1474
147.9656
148.1656
147.8821
147.9903
147.9254
147.8511
147.8822
147.7851
148.390
147.7378
147.9830
147.8210
147.8708
147.7671
147.7406
147.8719
147.7118
148.456
147.8473
147.9262
147.7548
147.8716
147.8048
147.7528
147.9776
147.8652
148.469
147.8401
148.168
147.7432
147.8009
147.8089
147.7014
147.7700
147.6612
147.9198
147.6126
147.8244
147.6390
147.6671
147.6386
147.5921
147.7648
147.5928
147.9340
147.7148
147.8044
147.6216
147.7066
147.7323
147.6220
147.8949
147.7713
147.9568
147.7311
147.8571
147.6135
147.6421
147.7422
147.5979
147.7016
147.5580
147.8237
147.5064
147.6442
147.5214
147.5311
147.5792
147.4830
147.6912
147.4971
147.8220
147.6466
147.6904
147.5397
147.5794
147.6883
147.5345
147.8255
147.6669
147.8256
147.5704
147.6454
147.5046
147.4761
147.6690
147.5263
147.6556
147.4758
147.7073
147.4253
147.4735
147.4614
147.4262
147.5326
147.4227
147.6536
147.4004
147.6773
147.4909
147.4911
147.4473
147.4583
147.6512
147.4482
147.7583
147.5723
147.7088
147.4742
147.4862
147.4661
147.3865
147.6542
147.4562
147.5941
147.3916
147.5668
147.3237
147.3154
147.4202
147.3661
147.5130
147.3430
147.5724
147.2808
147.4544
147.3431
147.3049
147.3419
147.3145
147.5737
147.3262
147.6129
147.4023
147.4810
147.3509
147.3129
147.4111
147.2682
147.5774
147.3447
147.4579
147.2366
147.3250
147.2354
147.1473
147.3564
147.2592
147.4344
147.2295
147.4127
147.1717
147.2368
147.2918
147.1897
147.3038
147.2333
147.5200
147.2398
147.4419
147.2945
147.3040
147.3149
147.2243
147.3936
147.1781
147.4861
147.2388
147.2690
147.965
147.1111
147.2004
147.316
147.3104
147.1628
147.3334
147.923
147.1794
147.627
147.398
147.2636
147.1458
147.2726
147.1461
147.3950
147.1208
147.1962
147.2151
147.2100
147.3296
147.1721
147.3837
147.1094
147.3380
147.1196
147.852
147.478
147.73
147.2209
146.9690
147.2656
147.984
147.2063
147.59
146.9951
147.576
146.9552
147.2799
147.844
147.2346
147.563
147.2112
147.646
147.276
147.2199
147.1381
147.3137
147.1023
147.2850
147.178
147.1047
147.901
146.9881
147.586
146.9583
147.2184
146.9100
147.1174
146.9485
146.9596
146.9419
146.8685
147.558
146.8730
147.2198
146.9812
147.415
146.8957
146.9665
147.498
146.9167
147.2127
147.501
147.2352
146.9870
147.538
146.9081
146.8757
147.750
146.9232
147.357
146.8558
147.845
146.7904
146.8243
146.8501
146.8128
146.9304
146.7888
147.314
146.7625
147.88
146.8663
146.8458
146.8574
146.8397
147.710
146.8452
147.1444
146.9535
147.434
146.8590
146.8446
146.9162
146.7848
147.883
146.8411
146.9499
146.7292
146.8174
146.7277
146.6487
146.8653
146.7632
146.9468
146.7242
146.8953
146.6553
146.6992
146.7930
146.6906
146.8050
146.7244
147.170
146.7262
146.9082
146.7890
146.7845
146.8326
146.7311
146.9309
146.7017
146.9942
146.7614
146.7620
146.6393
146.6186
146.7814
146.5966
146.8966
146.7301
146.8666
146.6343
146.6576
146.6492
146.5770
146.8662
146.6856
146.8370
146.6704
146.8572
146.6439
146.6372
146.7848
146.7189
146.8718
146.6762
146.8758
146.5845
146.7140
146.6605
146.5662
146.6340
146.5432
146.8082
146.5303
146.7455
146.5505
146.5533
146.5390
146.4868
146.6772
146.4990
146.8477
146.6180
146.6498
146.5074
146.5598
146.6688
146.5359
146.8378
146.6825
146.8584
146.6135
146.6701
146.5506
146.5072
146.7233
146.5577
146.6929
146.5008
146.7008
146.4309
146.4311
146.5211
146.4604
146.6104
146.4530
146.6945
146.4091
146.6049
146.4979
146.4609
146.5217
146.4935
146.7623
146.5224
146.7797
146.6068
146.6363
146.5490
146.4861
146.6171
146.4432
146.7660
146.5121
146.4671
146.3181
146.3676
146.4161
146.2939
146.5740
146.4324
146.6267
146.4007
146.5024
146.3494
146.3444
146.5532
146.4149
146.5570
146.4136
146.6577
146.4026
146.4628
146.4973
146.4564
146.5921
146.4423
146.6566
146.3968
146.5878
146.4093
146.3458
146.3594
146.2878
146.5290
146.2488
146.5097
146.3273
146.3891
146.2780
146.2430
146.3845
146.2505
146.6000
146.3661
146.4675
146.2858
146.3759
146.4008
146.2880
146.5631
146.4226
146.6056
146.3670
146.4626
146.2785
146.2822
146.4700
146.3037
146.4203
146.2428
146.4701
146.1869
146.2164
146.2453
146.2127
146.3478
146.2131
146.4476
146.2036
146.4186
146.2641
146.2098
146.2468
146.2311
146.4878
146.2383
146.5198
146.2838
146.3409
146.2538
146.2203
146.3499
146.1954
146.5178
146.2629
146.3102
146.1116
146.1479
146.1816
146.507
146.3202
146.1837
146.3710
146.1440
146.2382
146.939
146.856
146.3149
146.1797
146.3121
146.1600
146.4121
146.1665
146.2220
146.2844
146.2461
146.3899
146.2164
146.4321
146.1398
146.3186
146.1699
146.1184
146.1523
146.771
146.3353
146.592
146.3002
146.1122
146.1302
146.689
146.123
146.1844
146.105
146.3543
146.1617
146.2535
146.854
146.1499
146.2254
146.799
146.3802
146.2287
146.4048
146.1506
146.2055
146.897
146.457
146.2827
146.1131
146.2431
146.465
146.2368
145.9776
145.9774
146.817
146.382
146.2053
146.387
146.2617
145.9931
146.1362
146.859
146.231
146.1013
146.543
146.3350
146.824
146.3129
146.1434
146.1572
146.1357
146.376
146.2138
145.9929
146.3010
146.747
146.1007
145.9375
145.9288
146.611
145.8638
146.1576
145.9773
146.1221
145.9134
145.9427
145.9259
145.8748
146.1772
145.9951
146.1332
145.9506
146.1333
145.9454
145.9462
146.1315
146.758
146.2603
146.466
146.2184
145.9447
146.35
146.216
145.9270
146.248
145.9087
146.1774
145.8489
145.9955
145.8715
145.8669
145.9391
145.8493
146.729
145.8549
146.1623
145.9501
145.9301
145.8771
145.8849
146.1004
145.9049
146.2166
146.468
146.1457
145.9375
145.9217
145.9798
145.8486
146.1557
145.9443
146.576
145.8297
145.9026
145.8356
145.7251
145.9578
145.8454
146.386
145.8117
145.9657
145.7501
145.7795
145.9443
145.8202
145.9716
145.8440
146.1081
145.8608
145.9413
145.9327
145.8917
146.154
145.8641
146.714
145.8028
145.9987
145.8251
145.7653
145.7815
145.7018
145.9545
145.6904
145.9500
145.7585
145.7952
145.7244
145.6720
145.8380
145.6547
146.62
145.8109
145.8878
145.7252
145.7860
145.8718
145.7247
146.165
145.8638
146.424
145.8121
145.8511
145.7633
145.6909
145.9330
145.7412
145.8877
145.6980
145.8686
145.6358
145.6057
145.7558
145.6882
145.8661
145.6776
145.8869
145.6402
145.7231
145.7518
145.6698
145.7828
145.7137
145.9966
145.7197
145.8907
145.7620
145.7507
145.7959
145.6906
145.8977
145.6703
145.9492
145.7395
145.7077
145.6274
145.5705
145.7738
145.5514
145.8352
145.6277
145.7243
145.5593
145.5566
145.6519
145.5359
145.8788
145.6758
145.7858
145.6049
145.6987
145.6792
145.6028
145.8715
145.7383
145.9323
145.6925
145.7912
145.5948
145.5893
145.7727
145.6138
145.7377
145.5601
145.7874
145.5218
145.5421
145.6098
145.5712
145.7246
145.5589
145.7841
145.5356
145.7018
145.6204
145.5644
145.6354
145.5871
145.8745
145.6145
145.8540
145.6812
145.7084
145.7044
145.5979
145.7849
145.5796
145.8943
145.6293
145.6400
145.5198
145.5027
145.6628
145.4743
145.7727
145.5868
145.7262
145.5028
145.5105
145.5372
145.4462
145.7682
145.5795
145.7233
145.5368
145.6767
145.5778
145.5295
145.7613
145.6542
145.8438
145.6017
145.7422
145.5016
145.5248
145.6494
145.5194
145.6313
145.4710
145.7181
145.4471
145.4954
145.4912
145.4363
145.5593
145.4232
145.6779
145.4387
145.6515
145.5033
145.4622
145.5027
145.4783
145.7653
145.5333
145.7971
145.6010
145.6019
145.5583
145.4920
145.6506
145.4762
145.7975
145.5476
145.5803
145.4020
145.4124
145.5275
145.3342
145.6298
145.4710
145.6193
145.3911
145.4301
145.4311
145.3433
145.6553
145.4932
145.6493
145.4680
145.6276
145.4845
145.4318
145.6387
145.5328
145.7393
145.5383
145.6898
145.4334
145.4563
145.5524
145.4425
145.5593
145.4097
145.6589
145.3516
145.4242
145.3963
145.3820
145.4955
145.3619
145.6067
145.3421
145.5777
145.4134
145.3765
145.4241
145.4075
145.6775
145.4294
145.7099
145.5260
145.5502
145.4807
145.4094
145.5686
145.3955
145.7176
145.4558
145.4752
145.3131
145.3256
145.4368
145.2647
145.5678
145.3852
145.5459
145.3249
145.3517
145.3393
145.2790
145.5948
145.4245
145.5751
145.3947
145.5466
145.3978
145.3682
145.5725
145.4803
145.6655
145.4595
145.6184
145.3551
145.3799
145.4770
145.3787
145.5023
145.3540
145.5946
145.2915
145.3567
145.3353
145.3195
145.4368
145.2934
145.5334
145.2738
145.4917
145.3396
145.3028
145.3416
145.3136
145.5832
145.3538
145.6315
145.4324
145.4558
145.3988
145.3241
145.4783
145.2993
145.6214
145.3690
145.4063
145.2364
145.2518
145.3795
145.1819
145.4785
145.3111
145.4741
145.2371
145.2470
145.2583
145.1611
145.4852
145.3277
145.4665
145.2859
145.4189
145.3052
145.2567
145.4847
145.3639
145.5547
145.3224
145.4722
145.2280
145.2525
145.3824
145.2489
145.3033
145.1701
145.4365
145.1602
145.2136
145.2397
145.2034
145.3488
145.2118
145.4543
145.1720
145.3742
145.2728
145.2478
145.3150
145.2802
145.5646
145.2981
145.5442
145.3470
145.3580
145.3467
145.2644
145.4488
145.2487
145.5579
145.2973
145.2691
145.1664
145.1502
145.3228
145.1226
145.4261
145.2287
145.3563
145.1541
145.1655
145.2197
145.1169
145.4582
145.2717
145.4076
145.2234
145.3299
145.2824
145.1865
145.4422
145.3461
145.5297
145.2776
145.3730
145.1773
145.1722
145.3565
145.1987
145.3280
145.1445
145.3568
145.888
145.1008
145.1885
145.1416
145.3073
145.1508
145.3818
145.967
145.2295
145.2027
145.1591
145.2583
145.2033
145.4895
145.2068
145.4028
145.2735
145.2788
145.3218
145.2135
145.4121
145.1828
145.4648
145.2266
145.1906
145.1275
145.899
145.3006
145.591
145.3408
145.1628
145.2436
145.806
145.624
145.1919
145.433
145.4011
145.1699
145.2834
145.1041
145.1908
145.2382
145.1375
145.4315
145.2727
145.4506
145.2010
145.2591
145.1518
145.1150
145.3652
145.1944
145.3334
145.1250
145.2836
145.557
145.125
145.1793
145.995
145.2855
145.864
145.2889
145.378
145.1061
145.1930
145.969
145.2254
145.1240
145.4128
145.1510
145.2769
145.2202
145.1933
145.3011
145.1718
145.3851
145.1053
145.3225
145.1134
145.555
145.778
145.41
145.2531
144.9870
145.2459
145.413
145.616
145.173
144.9571
145.1473
144.9749
145.3291
145.1015
145.1624
145.156
145.687
145.2185
145.494
145.3693
145.2034
145.3535
145.1120
145.1056
145.1120
145.95
145.3106
145.1051
145.2182
144.9888
145.679
144.9804
144.8781
145.1290
145.205
145.2199
144.9866
145.1134
144.9116
144.9129
145.1264
145.130
145.1691
145.260
145.2747
145.304
145.737
145.1658
145.1044
145.2714
145.989
145.2994
144.9999
145.1215
145.695
144.9838
145.706
144.9611
145.2333
144.9480
145.1121
144.9721
144.9588
145.136
144.9249
145.1534
144.9197
145.2111
145.77
145.68
144.9902
144.9833
145.2200
145.25
145.3067
145.992
145.1705
145.486
144.9845
145.1084
144.9620
145.2985
145.540
145.1332
144.9302
144.9449
145.178
144.8422
145.1369
145.135
145.1726
144.9307
144.9514
144.9158
144.8687
145.1752
145.156
145.1692
144.9796
145.1261
144.9738
144.9273
145.1505
145.617
145.2541
145.245
145.1506
144.9042
144.9386
145.750
144.9411
145.591
144.8922
145.1303
144.8401
144.8871
144.9221
144.8904
145.413
144.8822
145.1165
144.8484
145.359
144.9585
144.8975
144.9677
144.9131
145.2093
144.9584
145.1853
145.271
145.227
145.470
144.9580
145.1562
144.9191
145.2155
144.9633
144.9171
144.8436
144.7989
145.93
144.7912
145.888
144.8902
144.9801
144.8192
144.8027
144.9260
144.7781
145.1238
144.9032
145.105
144.8470
144.9254
144.9871
144.8781
145.1829
145.137
145.1892
144.9568
144.9865
144.9076
144.8287
145.883
144.9256
145.480
144.8386
144.9806
144.7979
144.7443
144.9333
144.8522
145.443
144.8392
145.53
144.7660
144.8013
144.9437
144.8230
144.9699
144.8676
145.1495
144.8998
144.9659
144.9856
144.9388
145.855
144.9418
145.1599
144.8647
145.207
144.9004
144.8164
144.8835
144.8043
145.762
144.7914
144.9847
144.8188
144.8358
144.8697
144.7845
145.31
144.7771
145.874
144.8846
144.8744
144.8207
144.8270
145.482
144.8512
145.1597
144.9598
145.573
144.8945
144.8554
144.9635
144.7872
145.1094
144.8554
144.9326
144.7361
144.7587
144.8155
144.6699
144.9663
144.8201
144.9942
144.7625
144.8179
144.7745
144.7043
145.43
144.8287
144.9783
144.7989
144.9672
144.8138
144.7796
144.9886
144.9018
145.1040
144.8812
145.144
144.7696
144.7938
144.9224
144.7773
144.9076
144.7512
144.9948
144.6923
144.7205
144.7678
144.7346
144.8902
144.7318
144.9715
144.7186
144.8739
144.8085
144.7359
144.8299
144.7883
145.756
144.7840
144.9893
144.8397
144.8374
144.8892
144.7717
144.9818
144.7623
145.272
144.7892
144.7567
144.7166
144.6685
144.8929
144.6564
144.9410
144.7259
144.7632
144.6656
144.6382
144.8020
144.6513
145.56
144.8018
144.8770
144.7035
144.7574
144.8727
144.7312
145.382
144.8534
145.30
144.7791
144.7857
144.7727
144.6649
144.9551
144.7541
144.8880
144.6693
144.7628
144.6564
144.5626
144.7985
144.7039
144.9055
144.6687
144.7910
144.5957
144.5993
144.8124
144.6836
144.8381
144.6958
144.9387
144.6853
144.7103
144.8184
144.7549
144.9405
144.7552
144.9564
144.7045
144.7814
144.7738
144.6731
144.7776
144.6737
144.9376
144.6276
144.7385
144.6543
144.6320
144.7311
144.6115
144.8604
144.6091
144.8502
144.6918
144.6731
144.7057
144.6884
144.9591
144.7274
144.9853
144.7810
144.7891
144.7399
144.6793
144.8625
144.6477
144.9651
144.7067
144.7076
144.5927
144.5677
144.7406
144.5320
144.8290
144.6436
144.7621
144.5708
144.5679
144.6682
144.5510
144.8981
144.6919
144.8090
144.6414
144.7226
144.7387
144.6160
144.9041
144.7658
144.9482
144.6970
144.7575
144.6546
144.6103
144.8631
144.6852
144.8245
144.6256
144.7851
144.5752
144.5329
144.7242
144.6221
144.8110
144.6038
144.7884
144.5427
144.5866
144.7246
144.6077
144.7662
144.6655
144.9396
144.6785
144.7404
144.7626
144.7173
144.8604
144.7116
144.9315
144.6476
144.7974
144.7003
144.6160
144.6847
144.5959
144.8569
144.5417
144.7311
144.5886
144.6023
144.6577
144.5598
144.7879
144.5741
144.8598
144.6360
144.6158
144.6010
144.6174
144.8682
144.6474
144.9414
144.7297
144.7641
144.6660
144.6166
144.7609
144.5833
144.9132
144.6815
144.7314
144.5457
144.5567
144.6681
144.4937
144.7939
144.6231
144.7688
144.5426
144.5573
144.5856
144.4889
144.8205
144.6347
144.7782
144.5891
144.7068
144.6424
144.5584
144.8168
144.6728
144.8765
144.6468
144.7517
144.5737
144.5627
144.7725
144.6137
144.7643
144.5705
144.7606
144.5086
144.5027
144.6408
144.5582
144.7506
144.5662
144.7688
144.5058
144.5755
144.6434
144.5435
144.6680
144.5883
144.8829
144.5958
144.7160
144.6791
144.6605
144.7822
144.6288
144.8518
144.5960
144.7899
144.6253
144.5647
144.6147
144.5407
144.8078
144.5172
144.7277
144.5473
144.5513
144.5561
144.4822
144.7034
144.4846
144.8116
144.6043
144.5996
144.5460
144.5608
144.7845
144.6011
144.9172
144.7000
144.7917
144.6334
144.5944
144.7073
144.5484
144.8786
144.6300
144.7067
144.5097
144.5209
144.5966
144.4207
144.7147
144.5927
144.7576
144.5217
144.5395
144.5289
144.4486
144.7665
144.5939
144.7510
144.5676
144.6947
144.5879
144.5285
144.7722
144.6560
144.8471
144.6256
144.7427
144.5288
144.5102
144.7007
144.5487
144.6875
144.5006
144.7113
144.4399
144.4270
144.5400
144.5136
144.6834
144.4920
144.7054
144.4587
144.5543
144.5937
144.4994
144.6345
144.5643
144.8501
144.5725
144.6949
144.6321
144.6017
144.7188
144.5904
144.8085
144.5158
144.7299
144.5416
144.4821
144.5099
144.4400
144.7026
144.4125
144.6499
144.4946
144.5167
144.5067
144.4205
144.6327
144.4352
144.7689
144.5601
144.5523
144.4872
144.4976
144.7118
144.5248
144.8400
144.6288
144.7122
144.5509
144.5146
144.6148
144.4499
144.7850
144.5256
144.6021
144.4101
144.4322
144.5128
144.3499
144.6511
144.5070
144.6757
144.4385
144.4715
144.4497
144.3768
144.6901
144.5425
144.6939
144.5078
144.6370
144.5337
144.4875
144.7298
144.6017
144.8050
144.5782
144.6790
144.4630
144.4526
144.6395
144.4925
144.6229
144.4409
144.6412
144.3698
144.3529
144.4759
144.4152
144.5925
144.4081
144.6294
144.3705
144.4518
144.5098
144.4213
144.5614
144.4705
144.7532
144.4951
144.6199
144.5624
144.5381
144.6565
144.5235
144.7401
144.4742
144.6678
144.5010
144.4333
144.4703
144.3948
144.6636
144.3858
144.5972
144.4046
144.4081
144.4216
144.3470
144.5693
144.3524
144.6670
144.4577
144.4344
144.3997
144.4068
144.6331
144.4210
144.7355
144.5578
144.6354
144.4887
144.4262
144.5613
144.4206
144.7505
144.4961
144.5510
144.3633
144.3746
144.4839
144.3232
144.6269
144.4788
144.6329
144.3914
144.4017
144.4213
144.3220
144.6516
144.4634
144.6038
144.4102
144.5297
144.4720
144.3861
144.6570
144.5204
144.7190
144.4805
144.5736
144.4151
144.3844
144.6017
144.4319
144.5804
144.3744
144.5626
144.3296
144.3167
144.4679
144.4131
144.5938
144.3916
144.5861
144.3509
144.4106
144.5167
144.4129
144.5505
144.4633
144.7335
144.4600
144.5286
144.5288
144.4630
144.6020
144.4553
144.6820
144.3879
144.5538
144.4460
144.3651
144.4324
144.3445
144.6183
144.3104
144.4924
144.3386
144.3421
144.3863
144.2946
144.5392
144.3167
144.6091
144.4338
144.4161
144.4109
144.3884
144.6462
144.4281
144.7188
144.5352
144.5617
144.4718
144.3965
144.5605
144.3891
144.7185
144.4760
144.5002
144.3375
144.3182
144.4683
144.2850
144.5832
144.3841
144.5048
144.3106
144.3114
144.3859
144.2587
144.6078
144.4046
144.5256
144.3425
144.4201
144.4410
144.3349
144.6328
144.4898
144.6688
144.4182
144.4570
144.3668
144.3081
144.5760
144.4219
144.5326
144.3030
144.4276
144.2700
144.2119
144.4213
144.3406
144.5320
144.3034
144.4560
144.2410
144.2843
144.4671
144.3807
144.5237
144.3746
144.6110
144.3525
144.3832
144.4802
144.4131
144.5883
144.4065
144.6032
144.3403
144.4371
144.4260
144.3227
144.4240
144.2989
144.5649
144.2729
144.3868
144.3218
144.2807
144.3921
144.2728
144.5207
144.2531
144.4882
144.3437
144.2981
144.3551
144.3376
144.6159
144.3467
144.6000
144.4233
144.4381
144.4351
144.3471
144.5495
144.3272
144.6301
144.4009
144.3637
144.2935
144.2512
144.4650
144.2189
144.5150
144.3332
144.3985
144.2752
144.2368
144.3946
144.2611
144.6220
144.3925
144.4584
144.2917
144.3417
144.4683
144.3365
144.6511
144.4615
144.6122
144.3698
144.3694
144.3839
144.2776
144.5896
144.3864
144.5037
144.2723
144.3351
144.2938
144.1953
144.4530
144.3193
144.5070
144.2758
144.3599
144.2360
144.2047
144.4723
144.3169
144.4871
144.3337
144.5317
144.3246
144.3108
144.5010
144.4366
144.6381
144.4225
144.5680
144.3014
144.3183
144.4306
144.3262
144.4636
144.3076
144.5346
144.2384
144.2640
144.3093
144.2434
144.4081
144.2579
144.5031
144.2401
144.3811
144.3525
144.3093
144.4220
144.3506
144.6383
144.3656
144.5359
144.4102
144.3988
144.4751
144.3402
144.5662
144.3252
144.5539
144.3407
144.2938
144.3065
144.2424
144.4993
144.2414
144.4881
144.2937
144.3063
144.2889
144.2131
144.4200
144.2265
144.5558
144.3248
144.3486
144.2640
144.2903
144.4948
144.3041
144.6140
144.4005
144.4920
144.3288
144.3048
144.4086
144.2563
144.5911
144.3353
144.4045
144.2113
144.2390
144.3198
144.1523
144.4470
144.2827
144.4345
144.2226
144.2461
144.2523
144.1711
144.4936
144.3074
144.4479
144.2687
144.3973
144.3236
144.2438
144.5081
144.4188
144.6214
144.3623
144.4485
144.2721
144.2385
144.4601
144.3136
144.4611
144.2533
144.4254
144.1867
144.1625
144.3221
144.2517
144.4508
144.2418
144.4297
144.1848
144.2332
144.3539
144.2779
144.4259
144.3123
144.5800
144.3204
144.3850
144.4078
144.3580
144.5109
144.3453
144.5564
144.2920
144.4282
144.3402
144.2521
144.3312
144.2272
144.4897
144.2101
144.3650
144.2354
144.2314
144.3082
144.2005
144.4424
144.1973
144.4609
144.2769
144.2501
144.2760
144.2717
144.5330
144.2836
144.5520
144.3603
144.3728
144.3320
144.2639
144.4523
144.2400
144.5578
144.2937
144.3087
144.2069
144.1813
144.3686
144.1460
144.4465
144.2394
144.3276
144.1677
144.1602
144.2813
144.1346
144.4982
144.2693
144.3589
144.1958
144.2648
144.3487
144.2059
144.5176
144.3777
144.5443
144.3032
144.2998
144.2812
144.1787
144.4740
144.2602
144.3731
144.1661
144.2530
144.1782
144.720
144.3238
144.2243
144.4237
144.1831
144.2850
144.1384
144.1227
144.3748
144.2159
144.3764
144.2114
144.4157
144.1997
144.1920
144.3699
144.2972
144.4986
144.2876
144.4575
144.2077
144.2437
144.3396
144.2289
144.3540
144.1815
144.4162
144.1273
144.1575
144.1999
144.1344
144.3039
144.1498
144.3925
144.1401
144.2793
144.2433
144.1919
144.2990
144.2245
144.5194
144.2455
144.4085
144.2958
144.2897
144.3829
144.2406
144.4589
144.2180
144.4401
144.2357
144.1704
144.1978
144.1185
144.3887
144.1072
144.3400
144.1661
144.1837
144.1800
144.1114
144.3292
144.1400
144.4608
144.2659
144.2593
144.1935
144.1953
144.4139
144.2249
144.5304
144.3349
144.3991
144.2566
144.2011
144.3301
144.1790
144.5083
144.2715
144.3332
144.1337
144.1337
144.2474
144.805
144.3749
144.1923
144.3237
144.953
144.1136
144.1639
144.809
144.4202
144.2176
144.3355
144.1553
144.2489
144.2435
144.1721
144.4545
144.3153
144.5015
144.2400
144.2905
144.1784
144.1435
144.4033
144.2204
144.3719
144.1507
144.2806
144.949
144.462
144.2496
144.1541
144.3475
144.1176
144.2763
144.587
144.956
144.2777
144.1745
144.3261
144.1813
144.4197
144.1693
144.2043
144.3011
144.2405
144.4088
144.2189
144.4154
144.1602
144.2333
144.2385
144.1342
144.2347
144.968
144.3547
144.664
144.1513
144.1054
144.835
144.2105
144.728
144.3218
144.886
144.2850
144.1669
144.953
144.1758
144.1382
144.4325
144.1836
144.4069
144.2351
144.2274
144.2726
144.1661
144.3711
144.1558
144.4275
144.2257
144.1794
144.1341
144.716
144.3038
144.438
144.3093
144.1358
144.1687
144.1009
144.424
144.2296
144.685
144.4171
144.1984
144.2194
144.1138
144.1320
144.3158
144.1462
144.4676
144.2835
144.3792
144.1852
144.1524
144.2365
144.1181
144.4409
144.1947
144.2823
144.683
144.936
144.1588
144.4
144.3005
144.1560
144.3282
144.824
144.1034
144.985
144.466
144.3671
144.1790
144.3166
144.1160
144.2502
144.1703
144.1045
144.3648
144.2601
144.4469
144.2037
144.3000
144.1298
144.1119
144.3191
144.1661
144.3112
144.1065
144.2694
144.357
144.58
144.1786
144.1203
144.3099
144.915
144.2781
144.364
144.826
144.2052
144.1146
144.2670
144.1497
144.4140
144.1354
144.1870
144.2301
144.1913
144.3449
144.1677
144.3850
144.995
144.2176
144.1787
144.888
144.1751
144.670
144.3426
144.188
144.1540
144.591
144.424
144.1400
144.308
144.2878
144.253
144.2655
144.1158
144.863
144.1365
144.1170
144.4043
144.1342
144.3858
144.1932
144.1926
144.2109
144.1313
144.3411
144.1139
144.4122
144.1763
144.1347
144.839
144.583
144.2799
144.325
144.3177
144.1072
144.1543
144.612
144.351
144.2129
144.463
144.4104
144.1736
144.2199
144.923
144.1482
144.3001
144.1299
144.4555
144.2833
144.3888
144.1891
144.1828
144.2364
144.1000
144.4282
144.1889
144.2904
144.927
144.1313
144.1433
144.69
144.2916
144.1399
144.3181
144.872
144.1347
144.816
144.231
144.3243
144.1615
144.3282
144.1624
144.3120
144.1786
144.1201
144.3583
144.2368
144.4353
144.2119
144.3240
144.1034
144.1084
144.2971
144.1472
144.2941
144.1223
144.3284
144.569
144.470
144.1728
144.951
144.2775
144.1068
144.3183
144.569
144.1249
144.2126
144.1140
144.2514
144.1677
144.4467
144.1682
144.2496
144.2444
144.1871
144.3276
144.1979
144.4214
144.1307
144.2876
144.1836
144.1020
144.1934
144.1044
144.3740
144.760
144.2183
144.718
144.623
144.1396
144.357
144.2774
144.447
144.3133
144.1318
144.975
144.1324
144.1207
144.3815
144.1385
144.4100
144.2155
144.2290
144.1915
144.1167
144.3043
144.974
144.4064
144.1642
144.1579
144.579
144.143
144.2180
144.72
144.3012
144.1222
144.1812
144.405
144.48
144.1450
144.114
144.3715
144.1642
144.2306
144.574
144.1047
144.2237
144.916
144.4037
144.2225
144.3538
144.1243
144.1100
144.1421
144.462
144.3619
144.1577
144.2729
144.362
144.657
144.533
143.9276
144.1994
144.664
144.2589
144.73
144.799
143.9958
143.9458
144.2378
144.878
144.2532
144.594
144.2188
144.630
144.213
144.2438
144.1646
144.3726
144.1329
144.2688
144.441
144.422
144.2126
144.722
144.2178
144.337
144.2399
143.9675
143.9597
144.836
144.317
144.2071
144.308
144.2491
143.9875
144.472
144.1248
144.269
144.1686
144.809
144.3668
144.762
144.1693
144.1606
144.985
144.2464
144.1124
144.3343
144.448
144.1958
144.943
144.81
144.953
144.96
144.2850
143.9916
144.1498
144.129
144.24
144.851
143.9794
144.2132
143.9853
144.2448
144.686
144.333
144.691
144.348
144.3044
144.701
144.3315
144.1455
144.1524
144.1359
144.431
144.2283
144.284
144.3309
144.1255
144.764
143.9877
143.9390
144.1514
143.9178
144.2080
144.314
144.1047
143.9676
143.9224
144.760
143.9156
144.2723
144.567
144.615
143.9421
143.9921
144.1328
143.9667
144.2849
144.963
144.2409
144.288
144.262
144.803
143.9544
144.2761
144.403
144.1381
143.9394
143.9848
143.9991
143.8593
144.1441
143.9991
144.1804
143.9518
143.9910
143.9526
143.8927
144.2014
144.296
144.1916
144.212
144.1595
144.417
143.9877
144.2403
144.1183
144.3066
144.602
144.1565
143.9659
143.9629
144.1688
144.178
144.1648
143.9584
144.1320
143.8918
143.8596
144.169
143.9593
144.1450
143.9308
144.1172
143.8825
143.9288
144.586
143.9760
144.1233
143.9916
144.2511
143.9716
144.246
144.780
144.352
144.1948
144.338
144.2430
143.9516
144.597
144.341
143.9835
144.724
143.9462
144.2105
143.9116
144.59
143.9365
143.9036
144.264
143.8870
144.1373
143.8999
144.1212
143.9743
143.9450
144.113
143.9740
144.2594
144.90
144.2289
144.529
144.478
144.825
143.9745
144.1909
143.9705
144.2382
143.9997
143.9429
143.9282
143.8708
144.1141
143.8513
144.1192
143.9203
143.9424
143.8988
143.8507
144.501
143.8601
144.2023
143.9720
143.9840
143.9042
143.9355
144.1376
143.9516
144.2681
144.636
144.1556
143.9949
143.9691
144.789
143.9215
144.2592
144.74
144.769
143.8816
143.8912
143.9944
143.8350
144.1288
143.9430
144.854
143.8599
143.8622
143.9188
143.8243
144.1635
143.9879
144.1194
143.9337
144.171
144.168
143.9006
144.1923
144.475
144.2324
143.9852
144.260
143.9416
143.8714
144.1396
143.9385
144.726
143.8584
143.9832
143.8491
143.7687
143.9987
143.8858
144.888
143.8713
143.9971
143.8161
143.8268
144.550
143.9293
144.959
143.9309
144.1419
143.9163
143.9325
144.833
144.21
144.1851
143.9738
144.1410
143.8806
143.9104
144.93
143.8986
144.253
143.8632
144.1011
143.8088
143.8230
143.8713
143.8016
143.9683
143.8199
144.559
143.7844
143.9032
143.9167
143.8495
143.9737
143.9116
144.2048
143.9315
144.599
143.9979
143.9639
144.844
143.9448
144.1618
143.9162
144.915
143.9300
143.8741
143.9252
143.8271
144.960
143.7907
143.9812
143.8270
143.8276
143.8925
143.7954
144.320
143.7911
144.805
143.8855
143.8623
143.8714
143.8651
144.1330
143.8964
144.1752
143.9779
144.8
143.9618
143.8983
144.890
143.8891
144.2007
143.9614
143.9434
143.8501
143.8110
144.243
143.7978
144.822
143.9010
143.9763
143.8385
143.7894
143.9405
143.7816
144.1353
143.9428
143.9936
143.8503
143.8863
144.217
143.8515
144.1776
143.9865
144.877
143.8844
143.8740
143.9353
143.8053
144.1319
143.9093
144.173
143.7920
143.8196
143.8644
143.7425
144.266
143.8701
144.386
143.8042
143.8231
143.8018
143.7281
144.504
143.8784
144.298
143.8313
143.9549
143.8858
143.8018
144.641
143.9337
144.1205
143.8918
143.9818
143.8356
143.7919
144.391
143.8661
144.195
143.8145
143.9642
143.7690
143.7314
143.9275
143.8390
144.237
143.7993
143.9481
143.7290
143.7573
143.9407
143.8543
144.75
143.8594
144.839
143.8237
143.8380
143.9569
143.8879
144.842
143.9012
144.856
143.8029
143.8553
143.9146
143.8515
143.9606
143.8081
144.531
143.7640
143.7992
143.8166
143.7833
143.9403
143.7817
144.57
143.7573
143.8925
143.8562
143.7759
143.8966
143.8257
144.1202
143.8184
143.9756
143.8842
143.8918
143.9944
143.8646
144.881
143.8101
144.147
143.8416
143.7968
143.8468
143.7592
144.263
143.7552
143.9610
143.7942
143.7995
143.8453
143.7459
143.9760
143.7665
144.542
143.8603
143.8385
143.8411
143.8224
144.692
143.8192
144.1088
143.8963
143.9139
143.8751
143.8094
143.9869
143.7706
144.933
143.8496
143.8507
143.7499
143.7146
143.9091
143.6972
144.9
143.8004
143.8943
143.7517
143.7045
143.8533
143.7073
144.606
143.8416
143.9013
143.7525
143.7919
143.9321
143.7631
144.881
143.8946
144.265
143.8241
143.8159
143.8817
143.7465
144.686
143.8424
143.9534
143.7294
143.7619
143.7990
143.6654
143.9501
143.8094
143.9797
143.7417
143.7698
143.7546
143.6818
143.9987
143.8442
143.9803
143.7812
143.8974
143.8310
143.7494
144.130
143.8810
144.749
143.8567
143.9235
143.7844
143.7354
143.9820
143.8204
143.9684
143.7605
143.8962
143.7106
143.6492
143.8562
143.7750
143.9815
143.7454
143.8891
143.6713
143.6896
143.8911
143.7859
143.9509
143.8135
144.391
143.7796
143.7863
143.9253
143.8507
144.363
143.8451
144.269
143.7664
143.8085
143.8884
143.7849
143.9210
143.7595
143.9892
143.6887
143.7100
143.7541
143.7068
143.8776
143.7313
143.9633
143.6849
143.8131
143.8107
143.7330
143.8555
143.7980
144.910
143.8074
143.9408
143.8768
143.8381
143.9540
143.8132
144.400
143.7879
143.9657
143.8231
143.7692
143.8282
143.7238
143.9930
143.6814
143.8693
143.7109
143.6989
143.7627
143.6850
143.9369
143.6989
143.9725
143.7768
143.7500
143.7824
143.7782
144.537
143.8201
144.843
143.8920
143.8944
143.8801
143.7927
143.9804
143.7806
144.759
143.8372
143.7917
143.7260
143.6854
143.9035
143.6572
143.9492
143.7364
143.7894
143.7002
143.6702
143.8513
143.6785
144.297
143.8078
143.8495
143.7308
143.7795
143.9507
143.7870
144.1087
143.9296
144.283
143.8215
143.7838
143.8779
143.7400
144.711
143.8305
143.8810
143.6945
143.7146
143.7959
143.6259
143.9311
143.8071
143.9580
143.7168
143.7225
143.7528
143.6653
143.9986
143.8102
143.9428
143.7530
143.8386
143.8276
143.7351
144.212
143.8868
144.707
143.8184
143.8563
143.7703
143.6888
143.9654
143.7756
143.9177
143.7197
143.8378
143.7003
143.6208
143.8545
143.7310
143.9225
143.6842
143.8004
143.6395
143.6554
143.8921
143.7462
143.9130
143.7505
143.9570
143.7396
143.7271
143.9070
143.8616
144.483
143.8406
143.9927
143.7305
143.7442
143.8780
143.7486
143.8988
143.7368
143.9516
143.6812
143.6742
143.7661
143.7118
143.8876
143.6999
143.9104
143.6519
143.7228
143.7823
143.6847
143.8239
143.7376
144.258
143.7349
143.8237
143.8204
143.7724
143.9269
143.7891
144.218
143.7502
143.8797
143.7971
143.7083
143.7988
143.6876
143.9582
143.6392
143.7809
143.6832
143.6739
143.7764
143.6784
143.9408
143.6764
143.9066
143.7535
143.6968
143.7675
143.7424
144.323
143.7783
144.56
143.8205
143.8229
143.8650
143.7515
143.9674
143.7500
144.155
143.7741
143.7127
143.6985
143.6465
143.8968
143.6326
143.9028
143.7110
143.7287
143.6953
143.6423
143.8573
143.6665
144.5
143.7779
143.7942
143.7286
143.7374
143.9538
143.7564
144.637
143.8946
143.9483
143.8136
143.7494
143.8894
143.7080
144.363
143.7754
143.8115
143.6561
143.6691
143.8191
143.6270
143.9324
143.7387
143.8617
143.6566
143.6534
143.7475
143.6337
143.9839
143.7514
143.8561
143.6831
143.7425
143.8283
143.6999
144.140
143.8323
143.9942
143.7816
143.7901
143.7922
143.6833
143.9957
143.7814
143.9004
143.6715
143.7247
143.6944
143.5945
143.8679
143.7431
143.9187
143.6712
143.7395
143.6599
143.6092
143.9093
143.7476
143.8897
143.7201
143.8746
143.7373
143.6874
143.9233
143.8083
144.129
143.7959
143.8911
143.6919
143.6880
143.8948
143.7567
143.9115
143.7016
143.8676
143.6284
143.5863
143.7556
143.6962
143.8849
143.6902
143.8680
143.6166
143.6521
143.8045
143.6954
143.8585
143.7555
144.76
143.7463
143.7757
143.8673
143.7985
143.9690
143.7766
143.9735
143.7033
143.7583
143.7839
143.6602
143.7747
143.6497
143.9073
143.6082
143.6712
143.6770
143.6326
143.7900
143.6522
143.8860
143.6391
143.7809
143.7409
143.6692
143.7819
143.7108
144.40
143.7019
143.8632
143.7765
143.7634
143.8708
143.7450
143.9642
143.6865
143.8999
143.7188
143.6620
143.7126
143.6320
143.9017
143.6250
143.8152
143.6617
143.6440
143.6964
143.5912
143.8266
143.5856
143.8731
143.6859
143.6638
143.6755
143.6644
143.9300
143.6906
143.9661
143.7729
143.7962
143.7599
143.6648
143.8589
143.6646
143.9782
143.7328
143.7291
143.6569
143.6027
143.8148
143.5641
143.8575
143.6475
143.6943
143.6032
143.5632
143.7421
143.5740
143.9188
143.7053
143.7635
143.6378
143.6572
143.8360
143.6730
143.9955
143.8299
143.9314
143.7306
143.6874
143.7825
143.6300
143.9659
143.7154
143.7949
143.6046
143.6204
143.7126
143.5508
143.8538
143.6833
143.8250
143.6045
143.6057
143.6560
143.5605
143.8988
143.6999
143.8139
143.6257
143.7103
143.7303
143.6164
143.9166
143.7608
143.9564
143.7243
143.7516
143.6962
143.6151
143.9018
143.7283
143.8708
143.6296
143.7062
143.6145
143.5034
143.7528
143.6795
143.8540
143.6126
143.7011
143.5782
143.5342
143.8031
143.6608
143.8280
143.6705
143.8406
143.6589
143.6326
143.8468
143.7556
143.9567
143.7150
143.8357
143.6034
143.5928
143.7736
143.6281
143.7766
143.6030
143.8006
143.5390
143.5375
143.6914
143.6203
143.8066
143.5922
143.7769
143.5388
143.5782
143.7142
143.6118
143.7677
143.6517
143.9111
143.6452
143.6880
143.7609
143.7046
143.8782
143.7083
143.9041
143.6443
143.7213
143.7326
143.6068
143.7275
143.5936
143.8544
143.5349
143.6151
143.6025
143.5639
143.6976
143.5636
143.8074
143.5411
143.7116
143.6518
143.5914
143.7028
143.6393
143.9293
143.6534
143.8147
143.7045
143.7115
143.8155
143.6747
143.8922
143.6018
143.8102
143.6414
143.5791
143.6249
143.5478
143.8140
143.5352
143.7313
143.5695
143.5602
143.6113
143.5234
143.7550
143.5159
143.7983
143.6031
143.5792
143.6042
143.6002
143.8723
143.6315
143.9032
143.7180
143.7306
143.7079
143.6116
143.8041
143.5990
143.8957
143.6429
143.6013
143.5491
143.5138
143.7414
143.4947
143.7816
143.5724
143.6291
143.5404
143.4997
143.6901
143.5352
143.8877
143.6703
143.6990
143.5951
143.6080
143.7962
143.5988
143.9203
143.7179
143.8068
143.6441
143.6217
143.7280
143.5720
143.9023
143.6572
143.7331
143.5366
143.5388
143.6643
143.4803
143.7773
143.6224
143.7539
143.5392
143.5441
143.6088
143.4875
143.8382
143.6338
143.7532
143.5700
143.6450
143.6938
143.5905
143.8957
143.7319
143.8895
143.6499
143.6464
143.6291
143.5234
143.8282
143.6195
143.7577
143.5368
143.6051
143.5583
143.4519
143.7206
143.6009
143.7790
143.5372
143.5985
143.5103
143.4553
143.7574
143.5910
143.7427
143.5819
143.7393
143.6168
143.5605
143.8060
143.6941
143.8978
143.6559
143.7447
143.5632
143.5601
143.7679
143.6112
143.7485
143.5551
143.7234
143.4943
143.4464
143.6319
143.5341
143.7411
143.5323
143.7013
143.4746
143.5088
143.6935
143.5928
143.7524
143.6267
143.8412
143.5812
143.5890
143.7128
143.6437
143.8128
143.6269
143.8139
143.5527
143.5930
143.6684
143.5622
143.6932
143.5354
143.7757
143.4767
143.4875
143.5397
143.4909
143.6594
143.5069
143.7500
143.4854
143.5851
143.6001
143.5037
143.6425
143.5533
143.8491
143.5555
143.6603
143.6302
143.5834
143.7278
143.5938
143.8213
143.5358
143.6946
143.6015
143.5171
143.5998
143.4919
143.7679
143.4583
143.5926
143.4911
143.4892
143.5882
143.4683
143.7126
143.4479
143.6849
143.5310
143.4900
143.5574
143.5224
143.8228
143.5745
143.7922
143.6123
143.5923
143.6450
143.5403
143.7540
143.5133
143.7719
143.5543
143.4982
143.5054
143.4435
143.7036
143.4489
143.6820
143.5044
143.5066
143.5030
143.4266
143.6522
143.4231
143.7403
143.5280
143.5039
143.4879
143.4972
143.7552
143.5478
143.8373
143.6406
143.6630
143.5901
143.5195
143.6919
143.4773
143.7987
143.5245
143.5317
143.4324
143.4158
143.6213
143.4109
143.7003
143.4987
143.5611
143.4421
143.4041
143.5615
143.4036
143.7582
143.5131
143.5758
143.4440
143.5047
143.6724
143.5121
143.8309
143.6528
143.7567
143.5544
143.5244
143.6152
143.4790
143.8083
143.5429
143.6145
143.4283
143.4624
143.5525
143.3982
143.7001
143.5264
143.6694
143.4509
143.4497
143.5014
143.3858
143.7331
143.5156
143.6336
143.4615
143.5396
143.5686
143.4666
143.7733
143.6267
143.8006
143.5547
143.5522
143.5246
143.4285
143.7247
143.5183
143.6482
143.4437
143.5268
143.4767
143.3659
143.6269
143.5067
143.6865
143.4371
143.5036
143.4190
143.3739
143.6648
143.4914
143.6592
143.4984
143.6584
143.5323
143.4762
143.7138
143.5972
143.7962
143.5545
143.6607
143.4840
143.4736
143.6969
143.5258
143.6631
143.4694
143.6357
143.4212
143.3840
143.5794
143.4872
143.6881
143.4783
143.6436
143.4213
143.4453
143.6428
143.5459
143.7149
143.5700
143.7975
143.5342
143.5405
143.6792
143.5945
143.8006
143.6062
143.7751
143.5172
143.5493
143.6416
143.5367
143.6728
143.5109
143.7368
143.4418
143.4487
143.5191
143.4682
143.6518
143.4833
143.7009
143.4589
143.5448
143.5830
143.5157
143.6538
143.5728
143.8582
143.5530
143.6517
143.6333
143.5841
143.7274
143.5863
143.8057
143.5373
143.6654
143.5935
143.5091
143.6022
143.4967
143.7632
143.4431
143.5664
143.4797
143.4555
143.5718
143.4733
143.7286
143.4690
143.6725
143.5431
143.5114
143.5929
143.5383
143.8251
143.5328
143.7557
143.6087
143.6079
143.6615
143.5691
143.7820
143.5191
143.7718
143.5626
143.5128
143.5259
143.4472
143.7086
143.4270
143.6605
143.4655
143.4700
143.4869
143.4188
143.6464
143.4237
143.7327
143.5260
143.5036
143.4898
143.4780
143.7311
143.5073
143.7989
143.6058
143.6362
143.5760
143.5116
143.6936
143.4753
143.7866
143.5520
143.5362
143.4452
143.4061
143.6177
143.3815
143.6737
143.4907
143.5292
143.4235
143.3825
143.5522
143.3792
143.7303
143.5137
143.5541
143.4329
143.4633
143.6426
143.4696
143.7933
143.6250
143.7251
143.5349
143.5041
143.6063
143.4440
143.7743
143.5314
143.6024
143.3924
143.3956
143.5207
143.3435
143.6544
143.5104
143.6422
143.4267
143.4354
143.5079
143.3828
143.7279
143.5389
143.6460
143.4615
143.5303
143.5878
143.4693
143.7801
143.6183
143.7855
143.5624
143.5629
143.5502
143.4413
143.7532
143.5485
143.6763
143.4500
143.4916
143.4703
143.3436
143.6203
143.4827
143.6684
143.4482
143.5066
143.4424
143.3754
143.6798
143.5150
143.6801
143.5023
143.6332
143.5336
143.4778
143.7335
143.6287
143.8216
143.5703
143.6406
143.4894
143.4399
143.6806
143.5128
143.6572
143.4607
143.6156
143.4255
143.3771
143.5866
143.4819
143.6829
143.4544
143.6015
143.3941
143.4002
143.6165
143.4948
143.6676
143.5398
143.7597
143.5215
143.5354
143.7023
143.6281
143.8187
143.5959
143.7455
143.4880
143.5059
143.6319
143.5047
143.6448
143.4783
143.7065
143.4392
143.4505
143.5378
143.4743
143.6429
143.4577
143.6751
143.4152
143.4947
143.5700
143.4887
143.6341
143.5580
143.8462
143.5755
143.6405
143.6580
143.5977
143.7555
143.5887
143.7986
143.5359
143.6497
143.6102
143.5106
143.6084
143.4999
143.7690
143.4731
143.5768
143.5129
143.5005
143.6225
143.4817
143.7270
143.4756
143.6539
143.5552
143.5084
143.5944
143.5492
143.8374
143.5569
143.7513
143.6069
143.5992
143.6842
143.5672
143.7956
143.5584
143.7865
143.5852
143.5220
143.5487
143.4803
143.7508
143.4611
143.6779
143.5030
143.5000
143.5328
143.4481
143.6898
143.4853
143.7813
143.5709
143.5463
143.5601
143.5561
143.8165
143.5605
143.8388
143.6419
143.6453
143.6130
143.5633
143.7549
143.5490
143.8589
143.6164
143.5958
143.5106
143.4722
143.6916
143.4483
143.7363
143.5368
143.5739
143.4930
143.4657
143.6437
143.4745
143.8238
143.5974
143.6538
143.5274
143.5504
143.7299
143.5597
143.8800
143.7019
143.7914
143.6004
143.5802
143.6802
143.5157
143.8437
143.5933
143.6705
143.4755
143.4849
143.5977
143.4175
143.7228
143.5709
143.7001
143.4746
143.4765
143.5509
143.4371
143.7832
143.5751
143.6958
143.5189
143.5869
143.6445
143.5302
143.8278
143.6655
143.8247
143.5918
143.5894
143.5695
143.4670
143.7706
143.5648
143.6879
143.4700
143.5328
143.4965
143.3936
143.6666
143.5307
143.7152
143.4654
143.5337
143.4573
143.3996
143.7052
143.5548
143.7122
143.5451
143.6938
143.5725
143.5289
143.7734
143.6599
143.8577
143.6123
143.7048
143.5273
143.4992
143.7243
143.5669
143.7035
143.5057
143.6665
143.4514
143.4138
143.6048
143.5136
143.7165
143.4898
143.6517
143.4337
143.4536
143.6496
143.5059
143.6614
143.5382
143.7762
143.5296
143.5467
143.6920
143.6087
143.8044
143.6114
143.7882
143.5308
143.5670
143.6605
143.5497
143.6745
143.5097
143.7445
143.4576
143.4696
143.5387
143.4722
143.6452
143.4762
143.7068
143.4664
143.5579
143.6034
143.4987
143.6364
143.5494
143.8357
143.5409
143.6416
143.6297
143.5974
143.7513
143.6214
143.8421
143.5676
143.7012
143.6134
143.5364
143.6239
143.5101
143.7844
143.4653
143.5979
143.5141
143.4860
143.5959
143.4807
143.7309
143.4803
143.7018
143.5789
143.5425
143.6212
143.5778
143.8766
143.6075
143.8192
143.6642
143.6614
143.7181
143.6080
143.8212
143.5626
143.8217
143.6139
143.5535
143.5578
143.4897
143.7529
143.4834
143.7287
143.5565
143.5691
143.5652
143.4819
143.7038
143.4882
143.8008
143.5852
143.5679
143.5420
143.5459
143.7973
143.5870
143.8865
143.6794
143.7052
143.6336
143.5580
143.7319
143.5274
143.8451
143.5817
143.5818
143.4807
143.4665
143.6661
143.4544
143.7509
143.5712
143.6351
143.4930
143.4568
143.6103
143.4554
143.8116
143.5785
143.6192
143.4910
143.5448
143.7103
143.5402
143.8618
143.6783
143.8098
143.5998
143.5817
143.6662
143.5314
143.8587
143.6314
143.6836
143.4812
143.5007
143.5844
143.4227
143.7246
143.5547
143.7020
143.4771
143.4887
143.5250
143.4491
143.7971
143.5819
143.7089
143.5269
143.6183
143.6377
143.5260
143.8288
143.6603
143.8376
143.6064
143.6279
143.5798
143.5126
143.7986
143.6027
143.7489
143.5377
143.6000
143.5207
143.4053
143.6604
143.5387
143.7313
143.5107
143.6021
143.4808
143.4488
143.7238
143.5946
143.7546
143.5711
143.7390
143.5827
143.5429
143.7699
143.6828
143.8777
143.6521
143.7698
143.5460
143.5334
143.7277
143.5795
143.7275
143.5449
143.7245
143.4712
143.4488
143.6120
143.5410
143.7312
143.5240
143.7019
143.4548
143.4865
143.6469
143.5400
143.7106
143.6016
143.8582
143.5962
143.6261
143.7215
143.6500
143.8341
143.6425
143.8345
143.5530
143.6124
143.6522
143.5407
143.6726
143.5488
143.8024
143.5172
143.5577
143.5722
143.5236
143.6829
143.5218
143.7545
143.4821
143.6101
143.5836
143.4992
143.6149
143.5446
143.8484
143.5633
143.7086
143.6477
143.6109
143.7341
143.5890
143.8163
143.5659
143.7411
143.6133
143.5357
143.5937
143.5100
143.7887
143.4800
143.6504
143.5034
143.4937
143.5784
143.4733
143.7213
143.5020
143.7512
143.5664
143.5372
143.5812
143.5478
143.8268
143.5606
143.8122
143.6342
143.6394
143.6652
143.5793
143.7882
143.5583
143.8441
143.6020
143.5615
143.5419
143.4778
143.7212
143.4499
143.7255
143.5196
143.5424
143.5157
143.4712
143.6856
143.5011
143.8357
143.6240
143.6266
143.5569
143.5754
143.8020
143.5930
143.9003
143.6851
143.7464
143.6365
143.5859
143.7306
143.5550
143.8989
143.6613
143.6848
143.5290
143.5162
143.6793
143.4927
143.7961
143.6320
143.7269
143.5367
143.5233
143.6421
143.4900
143.8484
143.6414
143.7389
143.5652
143.6198
143.7227
143.5784
143.8947
143.7316
143.8853
143.6475
143.6224
143.6602
143.5552
143.8778
143.6388
143.7139
143.5209
143.5612
143.5916
143.4646
143.7520
143.6062
143.7871
143.5452
143.5807
143.5592
143.5052
143.8297
143.6451
143.7882
143.5901
143.7149
143.6504
143.5687
143.8427
143.7289
143.9214
143.6872
143.7548
143.6149
143.5711
143.8265
143.6556
143.8057
143.5923
143.7228
143.5505
143.4719
143.6869
143.5979
143.7851
143.5689
143.7096
143.5048
143.5142
143.7406
143.6459
143.8113
143.6525
143.8518
143.6230
143.6364
143.8016
143.7146
143.9053
143.6866
143.8477
143.5881
143.6038
143.7197
143.5922
143.7292
143.5771
143.8075
143.5370
143.5433
143.6348
143.5816
143.7533
143.5615
143.7849
143.5251
143.5985
143.6530
143.6008
143.7223
143.6269
143.9036
143.6237
143.7147
143.7145
143.6510
143.8072
143.6587
143.8690
143.6133
143.7319
143.6605
143.5815
143.6673
143.5417
143.8147
143.5034
143.6293
143.5513
143.5164
143.6341
143.5184
143.7720
143.5245
143.7289
143.5937
143.5185
143.6109
143.5737
143.8731
143.5956
143.8138
143.6657
143.6512
143.7166
143.6181
143.8397
143.5815
143.8257
143.6127
143.5713
143.5927
143.5206
143.7794
143.4958
143.7337
143.5535
143.5691
143.5768
143.5049
143.7356
143.4989
143.8060
143.5968
143.5829
143.5610
143.5607
143.8115
143.6027
143.9001
143.6849
143.7180
143.6496
143.5715
143.7447
143.5351
143.8593
143.6125
143.6268
143.5130
143.4897
143.6904
143.4888
143.7882
143.5923
143.6699
143.5334
143.4921
143.6398
143.4698
143.8194
143.5767
143.6316
143.4990
143.5549
143.7110
143.5515
143.8746
143.6815
143.8050
143.5900
143.5618
143.6546
143.5311
143.8692
143.6147
143.6828
143.4818
143.5047
143.5905
143.4300
143.7392
143.5742
143.7299
143.5038
143.5165
143.5624
143.4845
143.8202
143.6334
143.7605
143.5604
143.6378
143.6446
143.5354
143.8346
143.6813
143.8613
143.6410
143.6702
143.6157
143.5453
143.8310
143.6639
143.7930
143.5549
143.6414
143.5523
143.4433
143.7006
143.5574
143.7463
143.5284
143.6331
143.5092
143.4759
143.7552
143.6393
143.8065
143.6303
143.7945
143.6249
143.5979
143.8076
143.7052
143.9002
143.6665
143.7853
143.5656
143.5543
143.7428
143.5892
143.7398
143.5569
143.7478
143.5012
143.4909
143.6369
143.5754
143.7725
143.5674
143.7488
143.5010
143.5319
143.6786
143.5621
143.7307
143.6268
143.8898
143.6237
143.6530
143.7389
143.6746
143.8533
143.6580
143.8593
143.6006
143.6672
143.6915
143.5809
143.6862
143.5543
143.8095
143.5123
143.5770
143.5791
143.5392
143.6946
143.5503
143.7900
143.5445
143.6862
143.6501
143.5884
143.7043
143.6151
143.9024
143.6055
143.7721
143.6789
143.6502
143.7585
143.6380
143.8660
143.5973
143.7931
143.6391
143.5868
143.6408
143.5522
143.8219
143.5209
143.7133
143.5709
143.5749
143.6373
143.5406
143.7826
143.5248
143.8022
143.6079
143.5773
143.6083
143.5964
143.8703
143.6323
143.8849
143.6795
143.6791
143.6825
143.6000
143.7979
143.5637
143.8627
143.6239
143.5957
143.5542
143.5203
143.7502
143.5155
143.7870
143.5983
143.6198
143.5416
143.4709
143.6571
143.4748
143.8180
143.5754
143.5898
143.5202
143.5565
143.7585
143.5694
143.8868
143.6813
143.7623
143.6181
143.5632
143.6914
143.5387
143.8732
143.6095
143.6294
143.4729
143.4776
143.6167
143.4193
143.7328
143.5512
143.6785
143.4804
143.4727
143.5754
143.4669
143.8246
143.5954
143.6738
143.5048
143.5591
143.6535
143.5074
143.8211
143.6504
143.8152
143.5813
143.5691
143.5894
143.4928
143.8086
143.6019
143.6969
143.4874
143.5247
143.5287
143.3868
143.6744
143.5163
143.7041
143.4826
143.5289
143.4929
143.4299
143.7463
143.5537
143.7146
143.5236
143.6463
143.5769
143.4918
143.7624
143.6278
143.8206
143.5927
143.6678
143.5330
143.4899
143.7465
143.5668
143.7160
143.5022
143.6349
143.4618
143.3821
143.6037
143.5076
143.7006
143.4946
143.6349
143.4360
143.4326
143.6678
143.5318
143.7164
143.5682
143.7823
143.5482
143.5496
143.7248
143.6569
143.8506
143.6380
143.7884
143.5224
143.5347
143.6687
143.5480
143.6945
143.5221
143.7312
143.4561
143.4467
143.5533
143.5038
143.6913
143.5081
143.7187
143.4565
143.5254
143.6065
143.5088
143.6802
143.5904
143.8629
143.5955
143.6501
143.6746
143.6144
143.7800
143.6174
143.8294
143.5374
143.6495
143.6116
143.5184
143.6421
143.5348
143.8045
143.5085
143.6025
143.5541
143.5166
143.6530
143.5081
143.7528
143.4822
143.6641
143.5763
143.5187
143.6086
143.5667
143.8624
143.5690
143.7694
143.6433
143.6368
143.7241
143.6077
143.8317
143.5884
143.8067
143.6121
143.5523
143.5821
143.5139
143.7892
143.4925
143.7244
143.5432
143.5453
143.5825
143.5030
143.7345
143.5158
143.8122
143.5786
143.5709
143.5867
143.5858
143.8500
143.6031
143.8799
143.6813
143.6970
143.6663
143.5789
143.7660
143.5638
143.8827
143.6091
143.6161
143.5406
143.5173
143.7355
143.4992
143.7878
143.5770
143.6439
143.5450
143.5036
143.6792
143.5134
143.8759
143.6255
143.6872
143.5609
143.5883
143.7723
143.5894
143.9177
143.7056
143.8254
143.6410
143.6140
143.7193
143.5756
143.9053
143.6599
143.7360
143.5274
143.5359
143.6463
143.4597
143.7673
143.5754
143.7264
143.5085
143.5310
143.5941
143.4772
143.8229
143.6260
143.7544
143.5704
143.6463
143.6833
143.5563
143.8736
143.7169
143.9035
143.6440
143.6692
143.6324
143.5240
143.8234
143.6156
143.7665
143.5291
143.6187
143.5615
143.4414
143.7182
143.5836
143.8054
143.5411
143.6391
143.5408
143.4831
143.7791
143.6141
143.8011
143.6304
143.7985
143.6406
143.5718
143.8119
143.6930
143.9087
143.6618
143.7918
143.5945
143.5704
143.7789
143.6184
143.7848
143.5806
143.7794
143.5304
143.4802
143.6551
143.5695
143.7810
143.5587
143.7502
143.5187
143.5511
143.7216
143.5934
143.7845
143.6497
143.9048
143.6118
143.6440
143.7587
143.6865
143.8932
143.6934
143.9050
143.6056
143.6867
143.7326
143.6146
143.7524
143.6001
143.8648
143.5281
143.5912
143.6221
143.5626
143.7471
143.5865
143.8457
143.5416
143.6939
143.6753
143.5933
143.7398
143.6665
143.9713
143.6657
143.8350
143.7668
143.7312
143.8587
143.7047
143.9932
143.6754
143.8993
143.7707
143.6679
143.7397
143.6263
143.9177
143.5868
143.7922
143.6513
143.6424
143.7152
143.5902
143.8530
143.6001
143.8917
143.6889
143.6606
143.7086
143.6822
143.9703
143.6870
143.9811
143.7667
143.8159
143.8162
143.6970
143.9159
143.6803
144.25
143.7252
143.7262
143.6990
143.6490
143.9264
143.6364
143.9673
143.7257
143.8130
143.7560
143.6627
143.8821
143.6614
144.543
143.7810
143.8859
143.7908
143.7695
143.9750
143.7314
144.1055
143.8563
144.281
143.8826
143.8224
143.9647
143.7460
144.1187
143.8282
143.8701
143.7418
143.7518
143.8897
143.6557
144.295
143.8085
143.8012
143.6853
143.7656
143.7672
143.6375
144.395
143.8164
143.6754
143.6452
143.7529
143.8141
143.7115
143.8833
143.7747
143.6670
143.6302
143.6521
143.6727
143.6935
143.6897
143.4856
143.2440
143.334
142.8774
142.7669
142.6735
142.7215
142.8099
142.8132
142.8741
142.9306
142.9440
142.9514
143.784
143.1559
143.1169
143.2403
143.3310
143.3412
143.3228
143.3506
143.4236
143.3973
143.4335
143.4117
143.3692
143.3108
143.3241
143.3176
143.1971
143.2378
143.2486
143.1868
143.722
143.70
143.140
142.9228
142.9290
142.8971
142.8157
142.7198
142.6655
142.5734
142.4001
142.3732
142.3063
142.1657
141.9450
141.7548
141.6093
141.4112
141.2538
141.775
140.8649
140.6226
140.4342
140.2264
139.9849
139.8003
139.6899
139.5555
139.2925
139.963
138.9300
138.7743
138.6043
138.5207
138.3663
138.1903
138.404
137.9098
137.7725
137.5593
137.5274
137.4489
137.3111
137.1054
136.9479
136.8427
136.6902
136.5831
136.4828
136.3266
136.1472
136.162
135.8544
135.7047
135.4960
135.4589
135.3871
135.2247
135.301
134.8753
134.7949
134.6510
134.5788
134.5074
134.3818
134.2182
134.1279
134.95
133.8772
133.7183
133.7212
133.6498
133.5062
133.3337
133.1889
133.968
132.9431
132.8534
132.7609
132.6165
132.4437
132.3089
132.1557
132.55
131.8002
131.7637
131.6887
131.5572
131.3476
131.1940
131.950
130.9641
130.8453
130.7900
130.6713
130.5263
130.3801
130.2890
130.1600
129.9810
129.9045
129.8722
129.7966
129.6027
129.4507
129.3039
129.2061
129.553
128.9653
128.8559
128.7018
128.5199
128.3843
128.2252
128.861
127.8701
127.8157
127.7332
127.6280
127.4112
127.2575
127.1249
127.180
126.8636
126.8051
126.7076
126.5639
126.4061
126.3203
126.1838
126.493
125.8710
125.8532
125.7738
125.6608
125.4650
125.3177
125.1677
125.521
124.9060
124.8199
124.6931
124.5410
124.3602
124.2193
124.526
123.9111
123.6997
123.6329
123.5550
123.4598
123.2553
123.982
122.9363
122.8423
122.6817
122.5837
122.5064
122.3695
122.2198
122.818
121.9828
121.8506
121.6818
121.5553
121.5320
121.4335
121.2869
121.936
120.9353
120.7891
120.6647
120.5178
120.4322
120.3089
120.1518
119.9744
119.8206
119.6608
119.5165
119.3089
119.1955
119.1347
119.421
118.8740
118.6836
118.5222
118.4028
118.2709
118.1384
118.606
117.9599
117.8072
117.6474
117.5302
117.4132
117.2746
117.1017
116.9957
116.9656
116.8703
116.7232
116.5266
116.3718
116.2088
116.885
115.9353
115.8352
115.7260
115.5709
115.4022
115.2183
115.887
114.9196
114.7641
114.5631
114.5154
114.4316
114.3316
114.1266
113.9564
113.7950
113.6883
113.5445
113.4186
113.3424
113.2411
113.928
112.9375
112.8091
112.7023
112.5500
112.3889
112.2373
112.2130
112.1138
112.12
111.7978
111.6346
111.4609
111.3349
111.1935
111.558
110.9582
110.8352
110.6706
110.5050
110.3340
110.1940
110.226
109.8674
109.6758
109.6212
109.5323
109.4388
109.2574
109.713
108.9181
108.7782
108.6690
108.5222
108.4291
108.3538
108.2244
108.824
107.9220
107.8147
107.6779
107.5293
107.3601
107.2331
107.1976
107.977
106.9804
106.7802
106.6124
106.4392
106.2990
106.1666
106.174
105.9213
105.8180
105.6640
105.5116
105.3355
105.1924
105.297
104.8801
104.7098
104.5552
104.5144
104.4232
104.3283
104.1464
103.9819
103.8224
103.6779
103.5653
103.4179
103.3315
103.2602
103.1585
103.191
102.8691
102.7253
102.6113
102.4547
102.3173
102.1310
102.447
101.9935
101.8850
101.7663
101.5683
101.4132
101.2410
101.1051
100.9760
100.8289
100.7330
100.6414
100.5051
100.3536
100.1940
100.369
99.9045
99.7326
99.6067
99.4256
99.3320
99.2888
99.1994
99.1040
98.9198
98.7602
98.6044
98.4606
98.3533
98.2079
98.1060
98.292
97.9397
97.8051
97.6617
97.5092
97.3961
97.2510
97.995
96.9431
96.7767
96.7290
96.6683
96.5617
96.4444
96.2540
96.933
95.9306
95.7905
95.6676
95.5179
95.4272
95.3453
95.2310
95.890
94.9423
94.7845
94.6558
94.5044
94.3529
94.2170
94.503
93.9766
93.9394
93.8484
93.7566
93.5811
93.4281
93.2877
93.1298
93.319
92.8971
92.7812
92.7093
92.6390
92.5234
92.3926
92.2496
92.1013
91.9912
91.8414
91.6896
91.5457
91.3732
91.3201
91.2739
91.1728
91.741
90.9015
90.7435
90.5950
90.4207
90.3089
90.1844
90.627
89.9778
89.9017
89.7929
89.6599
89.5329
89.3828
89.2548
89.1187
88.9763
88.8593
88.7019
88.6007
88.5755
88.5033
88.4276
88.3182
88.1430
87.9994
87.8439
87.6978
87.5970
87.4583
87.3495
87.2796
87.2138
87.1166
86.9834
86.8460
86.7093
86.5962
86.4735
86.3167
86.1819
86.241
85.9066
85.8788
85.8227
85.7287
85.6378
85.4722
85.3288
85.1993
85.432
84.9239
84.8065
84.6801
84.5981
84.5340
84.4605
84.3448
84.2210
84.915
83.9505
83.8456
83.7025
83.5695
83.4478
83.2928
83.1892
83.1702
83.1188
83.401
82.9514
82.7919
82.6441
82.5175
82.3622
82.2480
82.1412
82.177
81.9284
81.8613
81.7959
81.7019
81.5777
81.4538
81.3312
81.2050
81.1014
80.9573
80.8268
80.7021
80.5573
80.4878
80.4691
80.4080
80.3255
80.2233
80.639
79.9209
79.7924
79.6411
79.5252
79.4330
79.3208
79.2271
79.1734
79.1175
79.287
78.9164
78.8006
78.6846
78.5568
78.4523
78.3237
78.1931
78.921
77.9599
77.8528
77.8224
77.7977
77.7266
77.6511
77.5335
77.3743
77.2528
77.1201
76.9697
76.8632
76.7661
76.6492
76.5742
76.5240
76.4730
76.3973
76.2910
76.1804
76.623
75.9431
75.8427
75.7345
75.6018
75.4906
75.3773
75.2508
75.1987
75.1950
75.1439
75.656
74.9898
74.8560
74.7123
74.5885
74.4663
74.3267
74.2381
74.1471
74.458
73.9842
73.9427
73.8965
73.8266
73.7320
73.6358
73.5278
73.4112
73.3032
73.1982
73.701
72.9607
72.8611
72.7368
72.6635
72.6500
72.6312
72.5744
72.5148
72.4238
72.2734
72.1498
72.284
71.8845
71.7688
71.6863
71.5889
71.5013
71.4474
71.4069
71.3701
71.3063
71.2081
71.1005
70.9883
70.8693
70.7636
70.6778
70.5561
70.4364
70.3417
70.2397
70.1494
70.1270
70.1319
70.888
70.252
69.9561
69.8323
69.6954
69.5820
69.4632
69.3261
69.2255
69.1532
69.653
68.9896
68.9448
68.9120
68.8746
68.8126
68.7258
68.6398
68.5415
68.4386
68.3332
68.2482
68.1339
68.243
67.9431
67.8488
67.7499
67.7180
67.7265
67.7070
67.6589
67.6107
67.5236
67.3887
67.2755
67.1624
67.404
66.9110
66.8358
66.7585
66.6745
66.6140
66.5893
66.5590
66.5299
66.4813
66.3959
66.2998
66.2024
66.1057
66.51
65.9213
65.8173
65.7050
65.6147
65.5374
65.4387
65.3888
65.3929
65.3992
65.3564
65.2991
65.2396
65.1301
65.124
64.9122
64.8110
64.6949
64.5853
64.5173
64.4457
64.3727
64.3190
64.2975
64.2713
64.2569
64.2065
64.1316
64.588
63.9731
63.8815
63.7881
63.7123
63.6089
63.5043
63.4255
63.3628
63.2842
63.2146
63.2106
63.2339
63.2206
63.1847
63.1511
63.826
62.9661
62.8525
62.7577
62.6557
62.5331
62.4499
62.3934
62.3194
62.2495
62.2153
62.1952
62.1748
62.1564
62.1139
62.353
61.9553
61.8713
61.7855
61.6955
61.6209
61.5447
61.4468
61.3503
61.2750
61.2013
61.1303
61.1090
61.1220
61.1360
61.1109
61.731
61.441
60.9589
60.8446
60.7478
60.6601
60.5587
60.4423
60.3738
60.3167
60.2593
60.1997
60.1738
60.1702
60.1604
60.1492
60.1079
60.508
59.9902
59.9203
59.8405
59.7528
59.6826
59.6202
59.5295
59.4485
59.3882
59.3390
59.2723
59.2277
59.2375
59.2677
59.2742
59.2514
59.2218
59.1755
59.836
58.9702
58.8814
58.7919
58.6918
58.5923
58.5343
58.4843
58.4229
58.3709
58.3523
58.3546
58.3490
58.3404
58.3148
58.2632
58.1984
58.1319
58.578
57.9788
57.9075
57.8453
57.7668
57.6816
57.6047
57.5521
57.4905
57.4242
57.4118
57.4411
57.4616
57.4548
57.4258
57.4016
57.3437
57.2528
57.1566
57.771
56.9951
56.9015
56.8130
56.7652
56.7236
56.6768
56.6325
56.6196
56.6298
56.6305
56.6402
56.6301
56.5949
56.5413
56.4881
56.4255
56.3625
56.2977
56.2439
56.1817
56.1078
56.414
56.55
55.9648
55.9052
55.8804
55.8993
55.9338
55.9587
55.9524
55.9314
55.9089
55.8435
55.7425
55.6589
55.5912
55.5105
55.4162
55.3408
55.2988
55.2626
55.2188
55.1886
55.1810
55.1969
55.2014
55.2116
55.2030
55.1701
55.1160
55.616
55.67
54.9416
54.8767
54.8246
54.7761
54.7054
54.6310
54.5793
54.5377
54.4883
54.4464
54.4455
54.4782
54.5173
54.5223
54.5044
54.4842
54.4439
54.3654
54.2757
54.2031
54.1426
54.715
53.9852
53.9283
53.8973
53.8736
53.8367
53.8136
53.8158
53.8419
53.8703
53.8873
53.8874
53.8617
53.8204
53.7791
53.7321
53.6799
53.6211
53.5727
53.5305
53.4704
53.4101
53.3639
53.3412
53.3086
53.2717
53.2723
53.3075
53.3542
53.3759
53.3751
53.3750
53.3590
53.3040
53.2202
53.1468
53.849
53.164
52.9413
52.8757
52.8409
52.8196
52.7933
52.7695
52.7657
52.7844
52.8087
52.8316
52.8597
52.8512
52.8215
52.7763
52.7262
52.6722
52.6145
52.5468
52.4923
52.4536
52.3929
52.3343
52.2866
52.2563
52.2218
52.1890
52.1865
52.2221
52.2780
52.3182
52.3167
52.3097
52.2943
52.2504
52.1766
52.1041
52.477
51.9893
51.9279
51.8611
51.8242
51.8132
51.8014
51.7829
51.7666
51.7819
51.8106
51.8433
51.8713
51.8841
51.8818
51.8564
51.8277
51.7918
51.7482
51.7033
51.6640
51.6407
51.5995
51.5491
51.5048
51.4858
51.4692
51.4420
51.4265
51.4500
51.5056
51.5564
51.5946
51.6005
51.6070
51.5966
51.5518
51.4787
51.4130
51.3584
51.3022
51.2435
51.1836
51.1596
51.1448
51.1294
51.1131
51.1082
51.1289
51.1590
51.1898
51.2195
51.2331
51.2221
51.1990
51.1653
51.1247
51.831
51.330
50.9916
50.9593
50.9252
50.8746
50.8374
50.8123
50.7953
50.7820
50.7586
50.7732
50.8213
50.8868
50.9241
50.9357
50.9315
50.9289
50.8955
50.8302
50.7726
50.7225
50.6754
50.6258
50.5648
50.5350
50.5263
50.5237
50.5166
50.5149
50.5326
50.5812
50.6249
50.6641
50.6963
50.7071
50.6997
50.6752
50.6476
50.6216
50.5922
50.5545
50.5276
50.5125
50.4780
50.4417
50.4203
50.4175
50.4067
50.3870
50.3871
50.4270
50.4985
50.5552
50.5850
50.6028
50.6137
50.6021
50.5611
50.4968
50.4443
50.4042
50.3594
50.3085
50.2562
50.2343
50.2347
50.2305
50.2195
50.2178
50.2517
50.2900
50.3371
50.3685
50.3959
50.3969
50.3888
50.3681
50.3451
50.3158
50.2795
50.2408
50.2111
50.1923
50.1584
50.1142
50.863
50.695
50.649
50.538
50.623
50.1092
50.1734
50.2295
50.2599
50.2679
50.2764
50.2722
50.2370
50.1809
50.1355
50.944
50.662
50.186
49.9836
49.9657
49.9736
49.9770
49.9807
49.9893
50.279
50.712
50.1249
50.1703
50.2024
50.2148
50.2105
50.1939
50.1705
50.1481
50.1162
50.822
50.701
50.573
50.242
49.9926
49.9936
49.9990
49.9987
49.9917
50.154
50.787
50.1529
50.2213
50.2499
50.2649
50.2819
50.2758
50.2372
50.1797
50.1466
50.1093
50.717
50.240
49.9877
49.9872
49.9911
49.9892
49.9823
50.2
50.453
50.993
50.1442
50.1930
50.2266
50.2354
50.2221
50.2049
50.1805
50.1499
50.1093
50.766
50.604
50.390
50.115
49.9815
49.9649
49.9615
49.9613
49.9612
49.9886
50.494
50.1302
50.1897
50.2203
50.2373
50.2486
50.2466
50.2013
50.1478
50.1126
50.757
50.436
49.9996
49.9623
49.9526
49.9714
49.9804
49.9965
50.199
50.689
50.1283
50.1821
50.2361
50.2650
50.2784
50.2828
50.2739
50.2648
50.2434
50.2208
50.1972
50.1936
50.1804
50.1532
50.1295
50.1318
50.1417
50.1442
50.1495
50.1883
50.2540
50.3366
50.4013
50.4362
50.4538
50.4802
50.4741
50.4296
50.3837
50.3478
50.3186
50.2868
50.2480
50.2289
50.2400
50.2552
50.2597
50.2670
50.2957
50.3467
50.4003
50.4505
50.5011
50.5286
50.5385
50.5297
50.5141
50.4944
50.4671
50.4430
50.4182
50.4089
50.3856
50.3579
50.3383
50.3420
50.3461
50.3448
50.3497
50.4015
50.4773
50.5619
50.6142
50.6426
50.6655
50.6853
50.6613
50.6161
50.5706
50.5480
50.5160
50.4772
50.4396
50.4303
50.4403
50.4513
50.4640
50.4841
50.5264
50.5869
50.6426
50.7008
50.7549
50.7799
50.7872
50.7878
50.7807
50.7612
50.7432
50.7237
50.7254
50.7159
50.6970
50.6797
50.6852
50.7003
50.7029
50.7060
50.7452
50.8183
50.9091
50.9764
51.204
51.487
51.773
51.738
51.321
50.9848
50.9582
50.9286
50.8911
50.8550
50.8314
50.8411
50.8568
50.8664
50.8785
50.9159
50.9728
51.331
51.873
51.1351
51.1703
51.1819
51.1742
51.1655
51.1494
51.1254
51.972
51.909
51.854
51.663
51.430
51.353
51.324
51.356
51.245
51.468
51.1103
51.1964
51.2684
51.3122
51.3463
51.3713
51.3771
51.3411
51.3020
51.2742
51.2562
51.2285
51.1850
51.1700
51.1840
51.2010
51.2146
51.2222
51.2566
51.3201
51.3835
51.4392
51.4955
51.5275
51.5476
51.5581
51.5626
51.5609
51.5455
51.5271
51.5199
51.5180
51.4991
51.4779
51.4857
51.4946
51.5021
51.5124
51.5532
51.6342
51.7218
51.7943
51.8439
51.8764
51.9076
51.8997
51.8613
51.8213
51.8069
51.7780
51.7415
51.7006
51.6961
51.7170
51.7294
51.7329
51.7486
51.7979
51.8595
51.9146
51.9855
52.456
52.681
52.685
52.615
52.466
52.296
52.81
51.9917
51.9905
51.9758
51.9539
51.9396
51.9446
51.9494
51.9547
51.9719
52.248
52.1132
52.2000
52.2478
52.2822
52.3132
52.3251
52.2999
52.2607
52.2305
52.2059
52.1852
52.1452
52.1186
52.1247
52.1419
52.1591
52.1773
52.2133
52.2796
52.3447
52.4162
52.4721
52.5153
52.5275
52.5363
52.5365
52.5273
52.5163
52.4990
52.5020
52.4980
52.4768
52.4700
52.4732
52.4941
52.4998
52.5093
52.5667
52.6537
52.7438
52.8101
52.8514
52.8902
52.9137
52.8897
52.8494
52.8220
52.7981
52.7678
52.7151
52.6913
52.7029
52.7197
52.7275
52.7436
52.7860
52.8483
52.9077
52.9730
53.247
53.540
53.618
53.641
53.564
53.445
53.257
53.112
53.152
52.9971
52.9721
52.9507
52.9514
52.9581
52.9562
52.9704
53.316
53.1306
53.2119
53.2606
53.2894
53.3216
53.3327
53.2981
53.2635
53.2460
53.2248
53.1938
53.1541
53.1435
53.1658
53.1885
53.1976
53.2218
53.2869
53.3521
53.4186
53.4802
53.5253
53.5450
53.5503
53.5642
53.5617
53.5486
53.5331
53.5299
53.5295
53.5098
53.4918
53.5065
53.5284
53.5303
53.5400
53.5969
53.6846
53.7764
53.8379
53.8909
53.9271
53.9531
53.9290
53.8841
53.8523
53.8290
53.8017
53.7542
53.7381
53.7498
53.7630
53.7597
53.7812
53.8302
53.9032
53.9705
54.380
54.1000
54.1250
54.1280
54.1342
54.1184
54.990
54.706
54.603
54.569
54.401
54.181
54.54
54.122
54.146
54.241
54.731
54.1599
54.2570
54.3193
54.3620
54.3924
54.4083
54.3854
54.3407
54.3136
54.2916
54.2670
54.2280
54.2126
54.2249
54.2439
54.2566
54.2794
54.3394
54.4010
54.4667
54.5364
54.5814
54.6035
54.6152
54.6216
54.6202
54.6071
54.5957
54.5929
54.5878
54.5703
54.5564
54.5702
54.5854
54.5881
54.6037
54.6692
54.7668
54.8516
54.9060
54.9524
54.9924
55.18
54.9619
54.9258
54.9069
54.8796
54.8406
54.8124
54.8192
54.8294
54.8362
54.8445
54.8843
54.9494
55.107
55.691
55.1241
55.1564
55.1592
55.1718
55.1634
55.1431
55.1331
55.1296
55.1291
55.1067
55.813
55.699
55.716
55.669
55.715
55.1176
55.2114
55.2966
55.3612
55.4057
55.4414
55.4508
55.4226
55.3845
55.3615
55.3420
55.3101
55.2759
55.2723
55.2983
55.3126
55.3223
55.3553
55.4172
55.4883
55.5572
55.6163
55.6533
55.6638
55.6745
55.6692
55.6613
55.6450
55.6393
55.6401
55.6184
55.5907
55.6027
55.6187
55.6200
55.6239
55.6852
55.7790
55.8640
55.9214
55.9695
56.55
56.165
55.9772
55.9375
55.9119
55.8909
55.8609
55.8332
55.8312
55.8472
55.8505
55.8567
55.8948
55.9598
56.228
56.909
56.1411
56.1637
56.1655
56.1645
56.1600
56.1478
56.1280
56.1209
56.1178
56.843
56.634
56.566
56.608
56.667
56.859
56.1586
56.2621
56.3346
56.3810
56.4138
56.4400
56.4259
56.3890
56.3595
56.3387
56.3131
56.2741
56.2549
56.2701
56.2852
56.2938
56.3117
56.3691
56.4378
56.5046
56.5706
56.6065
56.6221
56.6318
56.6332
56.6237
56.6026
56.5936
56.6009
56.5921
56.5780
56.5845
56.6059
56.6124
56.6133
56.6654
56.7535
56.8380
56.8989
56.9453
56.9750
56.9750
56.9322
56.8918
56.8707
56.8408
56.7969
56.7742
56.7860
56.7951
56.8009
56.8104
56.8641
56.9263
56.9884
57.480
57.839
57.937
57.958
57.883
57.784
57.623
57.495
57.542
57.393
57.178
57.11
56.9931
56.9947
56.9879
57.282
57.1115
57.1980
57.2484
57.2811
57.3200
57.3189
57.2796
57.2393
57.2177
57.1946
57.1532
57.1329
57.1445
57.1590
57.1678
57.1800
57.2277
57.2903
57.3554
57.4195
57.4532
57.4646
57.4724
57.4683
57.4615
57.4481
57.4384
57.4487
57.4329
57.4054
57.4131
57.4280
57.4284
57.4292
57.4857
57.5812
57.6614
57.7095
57.7464
57.7746
57.7567
57.7085
57.6755
57.6550
57.6312
57.5908
57.5746
57.5939
57.5986
57.5963
57.6168
57.6714
57.7295
57.7861
57.8338
57.8576
57.8583
57.8490
57.8363
57.8182
57.7976
57.7929
57.7829
57.7616
57.7445
57.7345
57.7327
57.7239
57.7489
57.8235
57.9166
57.9787
58.143
58.403
58.576
58.319
57.9841
57.9597
57.9395
57.9127
57.8819
57.8854
57.8947
57.8937
57.9050
57.9510
58.63
58.636
58.1165
58.1544
58.1748
58.1817
58.1828
58.1708
58.1508
58.1419
58.1426
58.1276
58.1046
58.1088
58.1179
58.1164
58.1137
58.1735
58.2615
58.3447
58.3951
58.4352
58.4692
58.4499
58.4061
58.3786
58.3568
58.3292
58.2837
58.2701
58.2842
58.2885
58.2801
58.3016
58.3532
58.4044
58.4682
58.5177
58.5330
58.5341
58.5244
58.5147
58.5015
58.4858
58.4920
58.4750
58.4470
58.4283
58.4286
58.4179
58.4105
58.4531
58.5305
58.6163
58.6622
58.6942
58.7218
58.7203
58.6819
58.6520
58.6352
58.6059
58.5662
58.5468
58.5587
58.5671
58.5740
58.5986
58.6575
58.7187
58.7836
58.8346
58.8576
58.8624
58.8653
58.8534
58.8443
58.8255
58.8280
58.8141
58.7868
58.7761
58.7848
58.7783
58.7646
58.8131
58.9022
58.9863
59.322
59.602
59.909
59.812
59.225
58.9910
58.9636
58.9410
58.8912
58.8767
58.8881
58.8970
58.9039
58.9267
58.9828
59.411
59.950
59.1402
59.1533
59.1427
59.1286
59.1109
59.939
59.710
59.743
59.607
59.299
59.169
59.160
59.107
59.28
59.504
59.1413
59.2137
59.2510
59.2731
59.3047
59.2851
59.2358
59.2033
59.1755
59.1487
59.1060
59.933
59.1123
59.1167
59.1304
59.1591
59.2186
59.2794
59.3449
59.3861
59.3984
59.3940
59.3904
59.3725
59.3444
59.3285
59.3265
59.2986
59.2747
59.2816
59.2912
59.2828
59.2877
59.3498
59.4351
59.5036
59.5415
59.5705
59.5793
59.5449
59.4952
59.4688
59.4383
59.3964
59.3581
59.3628
59.3786
59.3797
59.3936
59.4314
59.4928
59.5558
59.6128
59.6378
59.6367
59.6223
59.6028
59.5724
59.5466
59.5434
59.5405
59.5151
59.4948
59.4905
59.4869
59.4752
59.5005
59.5884
59.6779
59.7266
59.7581
59.7838
59.7774
59.7319
59.6914
59.6677
59.6375
59.5914
59.5755
59.5888
59.5965
59.5951
59.6135
59.6692
59.7285
59.7915
59.8345
59.8412
59.8443
59.8404
59.8245
59.7984
59.7809
59.7791
59.7512
59.7301
59.7352
59.7460
59.7363
59.7453
59.8094
59.9017
59.9755
60.186
60.552
60.677
60.263
59.9728
59.9401
59.9076
59.8606
59.8290
59.8344
59.8421
59.8381
59.8474
59.8970
59.9517
60.82
60.532
60.861
60.863
60.778
60.569
60.317
60.82
60.54
59.9919
59.9606
59.9417
59.9454
59.9385
59.9218
59.9651
60.507
60.1315
60.1731
60.2004
60.2200
60.2028
60.1487
60.1138
60.826
60.518
60.125
60.30
60.135
60.161
60.132
60.508
60.1073
60.1639
60.2138
60.2465
60.2477
60.2414
60.2329
60.2137
60.1834
60.1729
60.1672
60.1437
60.1269
60.1324
60.1293
60.1184
60.1540
60.2282
60.3151
60.3714
60.4072
60.4294
60.4157
60.3617
60.3195
60.2850
60.2511
60.2060
60.1950
60.2048
60.2090
60.2048
60.2265
60.2828
60.3343
60.3934
60.4254
60.4229
60.4124
60.3988
60.3782
60.3486
60.3362
60.3335
60.3002
60.2721
60.2609
60.2620
60.2473
60.2655
60.3335
60.4212
60.4641
60.4842
60.5091
60.5014
60.4475
60.4045
60.3787
60.3478
60.3027
60.2833
60.2944
60.3016
60.3010
60.3288
60.3770
60.4286
60.4841
60.5199
60.5271
60.5231
60.5197
60.4984
60.4735
60.4542
60.4528
60.4265
60.4037
60.4057
60.4047
60.3899
60.4052
60.4732
60.5628
60.6172
60.6458
60.6806
60.6768
60.6220
60.5778
60.5574
60.5235
60.4759
60.4599
60.4687
60.4657
60.4597
60.4780
60.5232
60.5707
60.6278
60.6726
60.6801
60.6674
60.6473
60.6207
60.5844
60.5619
60.5583
60.5354
60.5076
60.4963
60.4967
60.4849
60.4969
60.5666
60.6488
60.7035
60.7237
60.7509
60.7413
60.6884
60.6431
60.6109
60.5752
60.5264
60.5097
60.5168
60.5266
60.5252
60.5401
60.5901
60.6473
60.7100
60.7465
60.7558
60.7464
60.7345
60.7137
60.6852
60.6623
60.6537
60.6258
60.6070
60.6100
60.6096
60.5955
60.6095
60.6853
60.7715
60.8186
60.8526
60.8790
60.8771
60.8283
60.7903
60.7583
60.7204
60.6696
60.6543
60.6594
60.6597
60.6510
60.6695
60.7163
60.7678
60.8225
60.8537
60.8518
60.8380
60.8153
60.7855
60.7611
60.7421
60.7273
60.6977
60.6722
60.6586
60.6506
60.6272
60.6447
60.7146
60.7992
60.8461
60.8719
60.9008
60.8892
60.8302
60.7953
60.7595
60.7256
60.6755
60.6526
60.6641
60.6625
60.6642
60.6807
60.7325
60.7864
60.8436
60.8690
60.8794
60.8726
60.8631
60.8392
60.8185
60.8087
60.8024
60.7677
60.7495
60.7548
60.7483
60.7284
60.7556
60.8305
60.9049
60.9511
60.9824
61.103
60.9917
60.9331
60.8910
60.8555
60.8177
60.7699
60.7518
60.7660
60.7577
60.7605
60.7942
60.8428
60.8927
60.9416
60.9639
60.9556
60.9482
60.9288
60.8973
60.8659
60.8503
60.8444
60.8107
60.7802
60.7703
60.7621
60.7428
60.7679
60.8471
60.9205
60.9583
60.9837
60.9974
60.9758
60.9247
60.8914
60.8580
60.8177
60.7700
60.7634
60.7752
60.7794
60.7781
60.8122
60.8645
60.9085
60.9579
60.9802
60.9752
60.9682
60.9570
60.9305
60.9099
60.9048
60.8876
60.8511
60.8337
60.8425
60.8378
60.8275
60.8695
60.9470
61.126
61.521
61.867
61.1085
61.786
61.247
60.9931
60.9692
60.9167
60.8690
60.8615
60.8655
60.8529
60.8547
60.8900
60.9378
60.9875
61.409
61.603
61.535
61.390
61.194
60.9927
60.9592
60.9487
60.9205
60.8829
60.8541
60.8434
60.8294
60.8164
60.8673
60.9580
61.289
61.470
61.737
61.860
61.489
61.18
60.9675
60.9376
60.8878
60.8470
60.8531
60.8534
60.8437
60.8514
60.8980
60.9518
61.61
61.459
61.582
61.537
61.455
61.272
61.36
60.9829
60.9754
60.9426
60.9105
60.9041
60.9024
60.8791
60.8846
60.9432
61.231
61.829
61.1144
61.1470
61.1441
61.987
61.601
61.315
60.9932
60.9326
60.9040
60.9009
60.8929
60.8832
60.9007
60.9439
60.9881
61.397
61.813
61.831
61.732
61.626
61.364
61.58
60.9801
60.9685
60.9380
60.9018
60.8927
60.8784
60.8595
60.8730
60.9342
61.220
61.674
61.867
61.1054
61.962
61.393
60.9926
60.9594
60.9199
60.8650
60.8411
60.8411
60.8369
60.8271
60.8488
60.8981
60.9511
61.31
61.331
61.363
61.291
61.157
60.9931
60.9657
60.9467
60.9372
60.9092
60.8873
60.8844
60.8715
60.8435
60.8679
60.9448
61.225
61.653
61.1073
61.1300
61.1120
61.551
61.149
60.9867
60.9386
60.8805
60.8630
60.8619
60.8477
60.8406
60.8683
60.9211
60.9726
61.257
61.427
61.363
61.174
60.9967
60.9718
60.9355
60.9211
60.9008
60.8626
60.8365
60.8271
60.8153
60.8023
60.8341
60.9188
60.9910
61.267
61.548
61.673
61.334
60.9758
60.9369
60.9058
60.8608
60.8111
60.8071
60.8153
60.8028
60.8089
60.8428
60.8985
60.9529
60.9927
61.146
61.143
61.10
60.9891
60.9661
60.9360
60.9287
60.9014
60.8647
60.8441
60.8422
60.8291
60.8146
60.8627
60.9398
61.84
61.422
61.749
61.872
61.492
60.9956
60.9615
60.9287
60.8737
60.8383
60.8399
60.8365
60.8256
60.8249
60.8671
60.9122
60.9629
61.81
61.188
61.118
60.9881
60.9703
60.9398
60.9090
60.8994
60.8656
60.8233
60.7968
60.7813
60.7581
60.7538
60.8100
60.8936
60.9533
60.9803
61.5
61.73
60.9592
60.9095
60.8831
60.8485
60.7953
60.7657

END