=~=~=~=~=~=~=~=~=~=~=~= PuTTY log 2025.04.24 08:55:00 =~=~=~=~=~=~=~=~=~=~=~=




Speed (Hz)
59.8804
59.8871
59.9667
60.977
60.2366
60.3707
60.4740
60.5378
60.5603
60.5625
60.5465
60.5138
60.4708
60.4465
60.4065
60.3670
60.3470
60.3402
60.3224
60.3234
60.3867
60.4781
60.5349
60.5533
60.5645
60.5481
60.4797
60.3934
60.3231
60.2510
60.1678
60.998
60.836
60.783
60.682
60.698
60.1157
60.1764
60.2353
60.2801
60.2941
60.2816
60.2499
60.2101
60.1581
60.968
60.599
60.139
59.9623
59.9417
59.9449
59.9372
59.9264
59.9755
60.698
60.1536
60.1993
60.2323
60.2432
60.2035
60.1278
60.649
60.9
59.9365
59.8640
59.8470
59.8574
59.8593
59.8646
59.9069
59.9717
60.378
60.1027
60.1367
60.1370
60.1129
60.800
60.342
59.9829
59.9342
59.9047
59.8589
59.8273
59.8202
59.8179
59.8100
59.8354
59.9184
60.144
60.747
60.1062
60.1283
60.1126
60.483
59.9833
59.9288
59.8727
59.8035
59.7700
59.7754
59.7882
59.7938
59.8184
59.8799
59.9491
60.182
60.647
60.839
60.755
60.541
60.201
59.9739
59.9242
59.8990
59.8532
59.8141
59.8042
59.8131
59.8093
59.8235
59.8942
59.9946
60.759
60.1199
60.1528
60.1606
60.1097
60.392
59.9869
59.9272
59.8581
59.8034
59.8034
59.8118
59.8094
59.8211
59.8772
59.9493
60.210
60.820
60.1102
60.1027
60.749
60.367
59.9895
59.9373
59.9018
59.8674
59.8281
59.8029
59.8014
59.7987
59.7919
59.8359
59.9344
60.285
60.760
60.1039
60.1189
60.868
60.182
59.9578
59.9033
59.8488
59.7826
59.7640
59.7748
59.7831
59.7926
59.8312
59.8992
59.9699
60.312
60.710
60.761
60.631
60.374
60.34
59.9533
59.9098
59.8833
59.8380
59.8095
59.8105
59.8161
59.8072
59.8319
59.9189
60.189
60.832
60.1202
60.1501
60.1421
60.811
60.141
59.9601
59.8987
59.8260
59.7869
59.7893
59.7967
59.7982
59.8234
59.8861
59.9550
60.269
60.812
60.1010
60.861
60.597
60.160
59.9679
59.9138
59.8861
59.8446
59.8053
59.7864
59.7879
59.7788
59.7817
59.8410
59.9399
60.174
60.601
60.882
60.964
60.485
59.9758
59.9217
59.8684
59.8094
59.7542
59.7457
59.7637
59.7709
59.7855
59.8312
59.9037
59.9734
60.329
60.627
60.593
60.407
60.122
59.9736
59.9221
59.8855
59.8540
59.8092
59.7888
59.7948
59.7964
59.7880
59.8307
59.9238
60.215
60.806
60.1181
60.1412
60.1160
60.434
59.9813
59.9276
59.8685
59.7973
59.7731
59.7872
59.7909
59.7930
59.8248
59.8904
59.9594
60.274
60.731
60.822
60.636
60.339
59.9953
59.9511
59.9000
59.8732
59.8304
59.7941
59.7825
59.7874
59.7788
59.7981
59.8722
59.9769
60.491
60.864
60.1100
60.1026
60.426
59.9689
59.9143
59.8574
59.7934
59.7484
59.7515
59.7654
59.7713
59.7914
59.8470
59.9187
59.9876
60.406
60.627
60.575
60.364
60.82
59.9663
59.9140
59.8814
59.8478
59.8055
59.7949
59.8100
59.8114
59.8127
59.8699
59.9704
60.557
60.1049
60.1393
60.1532
60.1148
60.394
59.9864
59.9295
59.8657
59.8040
59.7935
59.8015
59.8024
59.8114
59.8573
59.9240
59.9940
60.612
60.968
60.967
60.751
60.423
59.9999
59.9481
59.9049
59.8771
59.8349
59.8076
59.8023
59.8030
59.7969
59.8269
59.9125
60.116
60.690
60.995
60.1220
60.1042
60.383
59.9708
59.9144
59.8560
59.7879
59.7570
59.7690
59.7832
59.7900
59.8189
59.8850
59.9590
60.250
60.708
60.852
60.715
60.485
60.127
59.9667
59.9185
59.8948
59.8548
59.8218
59.8168
59.8306
59.8244
59.8379
59.9104
60.140
60.929
60.1352
60.1646
60.1678
60.1101
60.368
59.9807
59.9216
59.8565
59.8086
59.8154
59.8263
59.8265
59.8390
59.8960
59.9642
60.308
60.906
60.1168
60.1096
60.811
60.438
59.9988
59.9464
59.9150
59.8827
59.8450
59.8189
59.8232
59.8225
59.8185
59.8670
59.9635
60.524
60.1005
60.1249
60.1386
60.1052
60.310
59.9697
59.9128
59.8518
59.7874
59.7662
59.7781
59.7898
59.8004
59.8427
59.9133
59.9839
60.494
60.903
60.961
60.836
60.549
60.110
59.9599
59.9143
59.8838
59.8358
59.8095
59.8161
59.8260
59.8235
59.8521
59.9411
60.439
60.1132
60.1505
60.1818
60.1690
60.1045
60.406
59.9836
59.9230
59.8472
59.8107
59.8148
59.8233
59.8220
59.8472
59.9145
59.9859
60.548
60.1099
60.1265
60.1124
60.829
60.445
59.9939
59.9377
59.9082
59.8640
59.8251
59.8079
59.8087
59.8044
59.8106
59.8813
59.9897
60.689
60.1120
60.1355
60.1424
60.962
60.251
59.9712
59.9140
59.8476
59.7885
59.7795
59.7931
59.8020
59.8143
59.8699
59.9457
60.182
60.814
60.1149
60.1182
60.1008
60.715
60.304
59.9789
59.9421
59.9042
59.8592
59.8410
59.8514
59.8523
59.8478
59.8988
59.9963
60.922
60.1479
60.1865
60.2066
60.1763
60.1048
60.434
59.9854
59.9264
59.8551
59.8370
59.8450
59.8498
59.8526
59.8876
59.9539
60.186
60.867
60.1290
60.1318
60.1159
60.853
60.449
59.9947
59.9445
59.9148
59.8706
59.8365
59.8263
59.8253
59.8159
59.8385
59.9209
60.244
60.882
60.1245
60.1521
60.1417
60.835
60.142
59.9639
59.9083
59.8404
59.7976
59.7996
59.8125
59.8166
59.8397
59.9010
59.9758
60.434
60.979
60.1149
60.1051
60.871
60.557
60.83
59.9563
59.9289
59.8839
59.8437
59.8346
59.8444
59.8387
59.8461
59.9118
60.130
60.997
60.1477
60.1843
60.1971
60.1510
60.782
60.216
59.9637
59.8986
59.8412
59.8346
59.8460
59.8420
59.8515
59.9042
59.9728
60.417
60.1022
60.1378
60.1318
60.1096
60.755
60.289
59.9760
59.9392
59.9056
59.8623
59.8333
59.8321
59.8328
59.8229
59.8645
59.9626
60.611
60.1164
60.1480
60.1713
60.1496
60.801
60.253
59.9699
59.9142
59.8447
59.8156
59.8237
59.8322
59.8384
59.8726
59.9435
60.156
60.833
60.1309
60.1450
60.1355
60.1144
60.786
60.309
59.9837
59.9564
59.9110
59.8778
59.8812
59.8857
59.8758
59.8999
59.9856
60.872
60.1591
60.1998
60.2324
60.2244
60.1613
60.938
60.404
59.9786
59.9097
59.8657
59.8684
59.8765
59.8752
59.8971
59.9554
60.242
60.955
60.1558
60.1774
60.1651
60.1383
60.1008
60.539
59.9988
59.9671
59.9254
59.8833
59.8615
59.8622
59.8545
59.8558
59.9182
60.198
60.1035
60.1471
60.1714
60.1835
60.1406
60.716
60.173
59.9592
59.8954
59.8362
59.8230
59.8326
59.8376
59.8478
59.8992
59.9734
60.452
60.1070
60.1389
60.1388
60.1238
60.956
60.547
60.25
59.9638
59.9296
59.8867
59.8662
59.8763
59.8790
59.8743
59.9230
60.224
60.1199
60.1759
60.2134
60.2368
60.2093
60.1361
60.763
60.194
59.9572
59.8853
59.8641
59.8719
59.8737
59.8774
59.9135
59.9817
60.513
60.1202
60.1661
60.1712
60.1521
60.1227
60.783
60.282
59.9815
59.9538
59.9085
59.8730
59.8674
59.8696
59.8625
59.8852
59.9640
60.691
60.1410
60.1752
60.2022
60.1923
60.1332
60.646
60.120
59.9538
59.8819
59.8384
59.8425
59.8518
59.8540
59.8805
59.9433
60.177
60.876
60.1452
60.1688
60.1622
60.1430
60.1106
60.681
60.148
59.9874
59.9465
59.9058
59.8961
59.9056
59.9000
59.9067
59.9760
60.784
60.1651
60.2115
60.2474
60.2584
60.2125
60.1432
60.874
60.274
59.9597
59.9014
59.8927
59.9016
59.8987
59.9079
59.9602
60.284
60.1006
60.1663
60.1962
60.1943
60.1696
60.1320
60.886
60.320
59.9919
59.9578
59.9134
59.8864
59.8861
59.8810
59.8744
59.9189
60.101
60.1054
60.1586
60.1888
60.2096
60.1841
60.1164
60.593
60.56
59.9484
59.8779
59.8538
59.8597
59.8648
59.8690
59.9048
59.9728
60.456
60.1096
60.1547
60.1648
60.1526
60.1267
60.870
60.375
59.9891
59.9595
59.9158
59.8890
59.8922
59.8996
59.8914
59.9162
60.16
60.1012
60.1715
60.2166
60.2486
60.2405
60.1742
60.1058
60.473
59.9860
59.9115
59.8705
59.8745
59.8801
59.8775
59.8987
59.9629
60.351
60.1027
60.1566
60.1741
60.1600
60.1308
60.893
60.443
59.9881
59.9589
59.9142
59.8750
59.8549
59.8562
59.8471
59.8514
59.9160
60.169
60.1011
60.1398
60.1687
60.1757
60.1283
60.559
60.16
59.9400
59.8770
59.8195
59.8113
59.8216
59.8284
59.8403
59.8899
59.9618
60.297
60.897
60.1217
60.1190
60.1027
60.755
60.358
59.9863
59.9507
59.9185
59.8719
59.8514
59.8603
59.8631
59.8565
59.9038
59.9974
60.893
60.1435
60.1821
60.2078
60.1802
60.1094
60.509
59.9957
59.9334
59.8619
59.8405
59.8497
59.8522
59.8578
59.8957
59.9639
60.298
60.951
60.1367
60.1411
60.1226
60.945
60.536
60.17
59.9526
59.9264
59.8851
59.8516
59.8444
59.8437
59.8361
59.8579
59.9418
60.446
60.1127
60.1405
60.1650
60.1584
60.962
60.306
59.9760
59.9177
59.8478
59.7982
59.8020
59.8143
59.8170
59.8373
59.8969
59.9677
60.365
60.860
60.1078
60.1013
60.824
60.535
60.110
59.9613
59.9354
59.8970
59.8571
59.8485
59.8568
59.8508
59.8526
59.9194
60.211
60.1060
60.1538
60.1856
60.1979
60.1510
60.772
60.225
59.9605
59.8935
59.8344
59.8253
59.8347
59.8346
59.8433
59.8904
59.9607
60.304
60.959
60.1322
60.1332
60.1093
60.790
60.378
59.9840
59.9430
59.9060
59.8627
59.8343
59.8305
59.8294
59.8221
59.8628
59.9567
60.546
60.1080
60.1405
60.1564
60.1303
60.637
60.55
59.9487
59.8952
59.8253
59.8034
59.8116
59.8211
59.8285
59.8613
59.9294
60.2
60.666
60.1071
60.1157
60.1051
60.801
60.405
59.9918
59.9444
59.9155
59.8701
59.8394
59.8444
59.8550
59.8500
59.8737
59.9573
60.607
60.1323
60.1751
60.2048
60.1974
60.1353
60.624
60.66
59.9430
59.8742
59.8330
59.8369
59.8444
59.8465
59.8700
59.9290
60.8
60.731
60.1333
60.1576
60.1443
60.1165
60.769
60.267
59.9700
59.9395
59.8982
59.8593
59.8390
59.8399
59.8363
59.8411
59.9066
60.91
60.945
60.1406
60.1669
60.1790
60.1346
60.665
60.90
59.9530
59.8930
59.8338
59.8198
59.8335
59.8390
59.8510
59.9012
59.9719
60.453
60.1044
60.1350
60.1349
60.1179
60.897
60.492
59.9960
59.9573
59.9262
59.8853
59.8639
59.8765
59.8815
59.8764
59.9233
60.218
60.1182
60.1764
60.2115
60.2338
60.2059
60.1368
60.764
60.194
59.9566
59.8877
59.8645
59.8717
59.8755
59.8781
59.9142
59.9808
60.502
60.1218
60.1675
60.1741
60.1585
60.1273
60.837
60.300
59.9780
59.9457
59.9008
59.8679
59.8535
59.8534
59.8447
59.8623
59.9455
60.499
60.1186
60.1535
60.1784
60.1734
60.1154
60.504
59.9987
59.9419
59.8786
59.8353
59.8380
59.8499
59.8565
59.8763
59.9369
60.100
60.836
60.1374
60.1577
60.1507
60.1323
60.1007
60.562
60.31
59.9760
59.9357
59.8966
59.8899
59.9011
59.9013
59.9067
59.9728
60.677
60.1496
60.1980
60.2306
60.2404
60.1934
60.1219
60.670
60.78
59.9444
59.8875
59.8821
59.8928
59.8934
59.9061
59.9575
60.278
60.937
60.1601
60.1908
60.1823
60.1578
60.1225
60.776
60.235
59.9848
59.9529
59.9113
59.8876
59.8896
59.8888
59.8816
59.9213
60.106
60.1048
60.1522
60.1770
60.1954
60.1667
60.1037
60.471
59.9946
59.9394
59.8730
59.8483
59.8570
59.8707
59.8778
59.9114
59.9755
60.442
60.1077
60.1513
60.1586
60.1483
60.1228
60.858
60.408
59.9957
59.9681
59.9235
59.8921
59.8948
59.9001
59.8916
59.9138
59.9946
60.948
60.1650
60.2082
60.2408
60.2338
60.1747
60.1068
60.539
59.9944
59.9273
59.8868
59.8868
59.8911
59.8874
59.9056
59.9632
60.322
60.1039
60.1593
60.1798
60.1697
60.1450
60.1097
60.662
60.150
59.9890
59.9466
59.9054
59.8850
59.8899
59.8853
59.8886
59.9510
60.545
60.1365
60.1793
60.2069
60.2167
60.1732
60.1025
60.513
59.9910
59.9292
59.8712
59.8600
59.8731
59.8772
59.8859
59.9320
60.8
60.706
60.1292
60.1634
60.1653
60.1510
60.1242
60.874
60.368
60.51
59.9717
59.9312
59.9127
59.9206
59.9213
59.9133
59.9587
60.551
60.1498
60.2051
60.2445
60.2655
60.2375
60.1649
60.1032
60.482
59.9885
59.9175
59.8964
59.9037
59.9059
59.9063
59.9445
60.93
60.763
60.1430
60.1860
60.1926
60.1719
60.1413
60.1040
60.524
60.60
59.9714
59.9293
59.8922
59.8776
59.8757
59.8646
59.8873
59.9712
60.705
60.1373
60.1724
60.1969
60.1897
60.1287
60.648
60.111
59.9532
59.8826
59.8439
59.8506
59.8589
59.8620
59.8814
59.9416
60.133
60.796
60.1279
60.1487
60.1443
60.1243
60.954
60.517
60.12
59.9726
59.9286
59.8897
59.8797
59.8920
59.8852
59.8950
59.9637
60.646
60.1487
60.2010
60.2367
60.2443
60.1975
60.1260
60.719
60.85
59.9408
59.8764
59.8702
59.8755
59.8722
59.8810
59.9308
59.9996
60.675
60.1312
60.1643
60.1612
60.1412
60.1059
60.634
60.104
59.9759
59.9412
59.8966
59.8698
59.8650
59.8618
59.8561
59.9008
59.9992
60.963
60.1492
60.1828
60.2003
60.1730
60.1040
60.462
59.9927
59.9375
59.8699
59.8481
59.8583
59.8644
59.8695
59.9049
59.9734
60.433
60.1082
60.1524
60.1621
60.1513
60.1268
60.897
60.413
59.9991
59.9705
59.9228
59.8915
59.8958
59.9002
59.8934
59.9201
60.88
60.1113
60.1808
60.2208
60.2464
60.2375
60.1746
60.1089
60.565
59.9968
59.9255
59.8904
59.8949
59.9014
59.8964
59.9201
59.9861
60.524
60.1200
60.1736
60.1898
60.1777
60.1504
60.1145
60.656
60.134
59.9860
59.9404
59.9012
59.8820
59.8843
59.8754
59.8805
59.9463
60.489
60.1317
60.1747
60.2051
60.2140
60.1662
60.998
60.480
59.9901
59.9229
59.8673
59.8615
59.8715
59.8766
59.8845
59.9345
60.61
60.752
60.1382
60.1685
60.1672
60.1534
60.1309
60.908
60.396
60.23
59.9638
59.9198
59.9005
59.9083
59.9071
59.9013
59.9522
60.544
60.1465
60.2036
60.2435
60.2711
60.2400
60.1627
60.1069
60.468
59.9805
59.9134
59.8984
59.9085
59.9087
59.9157
59.9610
60.321
60.1047
60.1737
60.2179
60.2251
60.2093
60.1730
60.1266
60.735
60.271
59.9917
59.9468
59.9117
59.9007
59.9018
59.8912
59.9238
60.141
60.1153
60.1800
60.2148
60.2384
60.2251
60.1642
60.994
60.431
59.9855
59.9152
59.8790
59.8860
59.8977
59.9040
59.9340
59.9986
60.700
60.1398
60.1899
60.2050
60.2007
60.1827
60.1502
60.1027
60.525
60.281
59.9858
59.9509
59.9470
59.9567
59.9496
59.9625
60.401
60.1414
60.2193
60.2655
60.3020
60.3063
60.2481
60.1779
60.1217
60.604
59.9911
59.9410
59.9404
59.9512
59.9465
59.9641
60.237
60.938
60.1657
60.2247
60.2470
60.2352
60.2108
60.1746
60.1286
60.729
60.422
60.28
59.9588
59.9353
59.9381
59.9373
59.9377
59.9935
60.945
60.1846
60.2307
60.2547
60.2657
60.2228
60.1518
60.965
60.403
59.9804
59.9191
59.9097
59.9252
59.9350
59.9472
59.9951
60.671
60.1407
60.2010
60.2361
60.2403
60.2256
60.1959
60.1552
60.1035
60.631
60.346
59.9873
59.9657
59.9735
59.9752
59.9660
60.82
60.1051
60.2039
60.2651
60.2997
60.3212
60.2948
60.2226
60.1606
60.1078
60.512
59.9784
59.9558
59.9650
59.9680
59.9698
60.69
60.735
60.1395
60.2073
60.2511
60.2573
60.2378
60.2096
60.1671
60.1171
60.653
60.369
59.9918
59.9568
59.9418
59.9467
59.9356
59.9543
60.389
60.1402
60.2132
60.2440
60.2684
60.2615
60.1991
60.1304
60.720
60.116
59.9408
59.8993
59.9041
59.9189
59.9261
59.9453
60.90
60.837
60.1585
60.2121
60.2345
60.2290
60.2056
60.1690
60.1223
60.672
60.361
59.9917
59.9492
59.9399
59.9524
59.9507
59.9610
60.371
60.1395
60.2239
60.2716
60.3055
60.3115
60.2598
60.1845
60.1257
60.665
60.13
59.9441
59.9450
59.9549
59.9535
59.9640
60.153
60.821
60.1473
60.2079
60.2379
60.2350
60.2113
60.1778
60.1302
60.758
60.432
60.81
59.9674
59.9412
59.9389
59.9405
59.9389
59.9875
60.875
60.1819
60.2314
60.2601
60.2758
60.2429
60.1735
60.1152
60.600
59.9992
59.9317
59.9082
59.9221
59.9297
59.9392
59.9827
60.519
60.1246
60.1917
60.2264
60.2325
60.2219
60.1972
60.1582
60.1078
60.618
60.369
59.9892
59.9622
59.9685
59.9735
59.9677
60.17
60.938
60.1927
60.2559
60.2919
60.3185
60.3014
60.2329
60.1640
60.1066
60.465
59.9758
59.9417
59.9475
59.9539
59.9512
59.9773
60.392
60.1093
60.1796
60.2287
60.2434
60.2247
60.1974
60.1566
60.1074
60.553
60.288
59.9831
59.9432
59.9227
59.9247
59.9161
59.9303
60.31
60.1085
60.1849
60.2213
60.2460
60.2444
60.1864
60.1130
60.543
59.9914
59.9241
59.8737
59.8699
59.8852
59.8893
59.9053
59.9647
60.379
60.1052
60.1637
60.1874
60.1766
60.1563
60.1251
60.858
60.335
60.26
59.9642
59.9193
59.9037
59.9151
59.9153
59.9171
59.9764
60.763
60.1705
60.2199
60.2582
60.2724
60.2282
60.1510
60.916
60.334
59.9715
59.9073
59.8979
59.9088
59.9139
59.9244
59.9717
60.395
60.1122
60.1791
60.2150
60.2146
60.1909
60.1550
60.1079
60.541
60.96
59.9782
59.9307
59.9007
59.8941
59.8977
59.8921
59.9282
60.186
60.1229
60.1853
60.2159
60.2388
60.2184
60.1491
60.829
60.285
59.9709
59.9042
59.8775
59.8879
59.9007
59.9077
59.9402
60.95
60.857
60.1556
60.2034
60.2133
60.2020
60.1749
60.1369
60.859
60.358
60.60
59.9609
59.9280
59.9265
59.9383
59.9342
59.9556
60.358
60.1361
60.2131
60.2548
60.2867
60.2838
60.2229
60.1494
60.904
60.298
59.9596
59.9160
59.9200
59.9300
59.9299
59.9489
60.74
60.786
60.1484
60.2052
60.2253
60.2127
60.1849
60.1490
60.987
60.427
60.95
59.9671
59.9230
59.9011
59.9021
59.8998
59.8993
59.9578
60.589
60.1456
60.1884
60.2146
60.2241
60.1808
60.1094
60.529
59.9938
59.9334
59.8734
59.8616
59.8731
59.8795
59.8909
59.9349
60.73
60.801
60.1415
60.1784
60.1807
60.1662
60.1380
60.981
60.463
60.50
59.9703
59.9243
59.9026
59.9101
59.9091
59.9008
59.9451
60.393
60.1342
60.1895
60.2264
60.2437
60.2167
60.1422
60.786
60.199
59.9595
59.8890
59.8672
59.8798
59.8881
59.8898
59.9260
59.9882
60.608
60.1251
60.1704
60.1812
60.1614
60.1360
60.960
60.492
59.9993
59.9768
59.9336
59.9007
59.8896
59.8903
59.8858
59.9026
59.9865
60.859
60.1520
60.1797
60.2014
60.1955
60.1347
60.689
60.169
59.9598
59.8937
59.8497
59.8580
59.8723
59.8824
59.9052
59.9693
60.436
60.1126
60.1652
60.1876
60.1801
60.1610
60.1266
60.828
60.273
60.10
59.9601
59.9180
59.9097
59.9239
59.9234
59.9306
59.9991
60.1000
60.1854
60.2304
60.2663
60.2774
60.2292
60.1545
60.1003
60.427
59.9762
59.9192
59.9150
59.9303
59.9318
59.9430
59.9919
60.609
60.1263
60.1868
60.2188
60.2129
60.1911
60.1565
60.1112
60.579
60.205
59.9852
59.9423
59.9132
59.9131
59.9115
59.9039
59.9483
60.435
60.1357
60.1865
60.2175
60.2323
60.2043
60.1345
60.775
60.212
59.9638
59.8958
59.8742
59.8875
59.8956
59.9021
59.9368
60.29
60.752
60.1443
60.1847
60.1929
60.1762
60.1502
60.1112
60.626
60.130
59.9879
59.9408
59.9144
59.9177
59.9272
59.9229
59.9512
60.398
60.1405
60.2062
60.2464
60.2726
60.2578
60.1897
60.1206
60.600
59.9982
59.9264
59.8895
59.8989
59.9053
59.9092
59.9358
59.9967
60.655
60.1349
60.1876
60.2045
60.1869
60.1562
60.1154
60.666
60.109
59.9802
59.9417
59.8995
59.8819
59.8855
59.8775
59.8861
59.9522
60.563
60.1360
60.1753
60.2020
60.2065
60.1575
60.870
60.327
59.9749
59.9098
59.8514
59.8456
59.8594
59.8639
59.8773
59.9327
60.90
60.836
60.1406
60.1674
60.1644
60.1468
60.1116
60.689
60.137
59.9803
59.9480
59.9036
59.8900
59.9047
59.9107
59.9093
59.9600
60.543
60.1461
60.2027
60.2391
60.2564
60.2229
60.1472
60.866
60.332
59.9719
59.9039
59.8880
59.8984
59.9038
59.9088
59.9500
60.189
60.878
60.1545
60.1993
60.2018
60.1805
60.1473
60.1045
60.516
60.50
59.9759
59.9296
59.8967
59.8922
59.8976
59.8921
59.9203
60.104
60.1126
60.1770
60.2093
60.2360
60.2171
60.1523
60.828
60.275
59.9712
59.8978
59.8578
59.8645
59.8786
59.8870
59.9140
59.9832
60.588
60.1303
60.1787
60.1934
60.1829
60.1586
60.1195
60.729
60.177
59.9917
59.9459
59.9088
59.9055
59.9180
59.9131
59.9235
60.12
60.1058
60.1843
60.2276
60.2564
60.2608
60.2079
60.1300
60.719
60.105
59.9421
59.8896
59.8941
59.9052
59.9043
59.9207
59.9785
60.479
60.1175
60.1758
60.2012
60.1908
60.1613
60.1195
60.700
60.148
59.9750
59.9381
59.8990
59.8748
59.8750
59.8736
59.8737
59.9268
60.245
60.1189
60.1640
60.1940
60.2061
60.1660
60.958
60.336
59.9786
59.9191
59.8571
59.8393
59.8541
59.8642
59.8728
59.9106
59.9803
60.529
60.1185
60.1531
60.1552
60.1383
60.1134
60.719
60.224
59.9790
59.9517
59.9048
59.8815
59.8873
59.8936
59.8904
59.9240
60.160
60.1121
60.1775
60.2119
60.2394
60.2222
60.1509
60.838
60.280
59.9655
59.8896
59.8587
59.8698
59.8776
59.8797
59.9105
59.9777
60.518
60.1230
60.1729
60.1863
60.1672
60.1391
60.955
60.474
59.9907
59.9642
59.9217
59.8849
59.8740
59.8795
59.8745
59.8886
59.9617
60.660
60.1426
60.1806
60.2052
60.2068
60.1525
60.804
60.229
59.9592
59.8933
59.8392
59.8365
59.8514
59.8596
59.8806
59.9409
60.171
60.896
60.1493
60.1800
60.1744
60.1542
60.1222
60.781
60.254
59.9869
59.9475
59.9064
59.8931
59.9083
59.9091
59.9105
59.9681
60.691
60.1581
60.2123
60.2448
60.2584
60.2176
60.1410
60.841
60.248
59.9603
59.8955
59.8837
59.8963
59.8983
59.9028
59.9448
60.155
60.864
60.1534
60.1973
60.1983
60.1787
60.1458
60.1017
60.515
60.28
59.9674
59.9238
59.8924
59.8889
59.8890
59.8811
59.9157
60.88
60.1124
60.1737
60.2064
60.2277
60.2080
60.1397
60.729
60.149
59.9578
59.8852
59.8520
59.8596
59.8711
59.8815
59.9122
59.9825
60.556
60.1253
60.1731
60.1884
60.1742
60.1513
60.1151
60.688
60.169
59.9928
59.9511
59.9173
59.9154
59.9254
59.9230
59.9390
60.151
60.1150
60.1917
60.2335
60.2619
60.2620
60.2062
60.1324
60.760
60.166
59.9487
59.8975
59.9007
59.9093
59.9100
59.9272
59.9866
60.569
60.1278
60.1875
60.2086
60.1975
60.1725
60.1378
60.917
60.364
60.46
59.9663
59.9280
59.9054
59.9065
59.9027
59.9000
59.9564
60.587
60.1507
60.1961
60.2215
60.2409
60.2012
60.1275
60.713
60.131
59.9473
59.8796
59.8644
59.8772
59.8827
59.8924
59.9399
60.121
60.825
60.1488
60.1832
60.1898
60.1722
60.1455
60.1047
60.535
60.80
59.9802
59.9354
59.9123
59.9220
59.9245
59.9162
59.9563
60.482
60.1462
60.2056
60.2429
60.2693
60.2481
60.1784
60.1181
60.623
60.16
59.9281
59.9009
59.9106
59.9135
59.9138
59.9452
60.97
60.785
60.1473
60.1956
60.2026
60.1850
60.1542
60.1127
60.610
60.76
59.9806
59.9401
59.9050
59.8948
59.8936
59.8825
59.9022
59.9829
60.828
60.1543
60.1889
60.2134
60.2086
60.1513
60.800
60.270
59.9669
59.9009
59.8542
59.8580
59.8745
59.8834
59.9001
59.9578
60.294
60.972
60.1495
60.1701
60.1669
60.1440
60.1149
60.679
60.146
59.9876
59.9508
59.9100
59.9009
59.9114
59.9043
59.9072
59.9721
60.748
60.1642
60.2101
60.2429
60.2513
60.2064
60.1332
60.775
60.189
59.9512
59.8910
59.8838
59.8932
59.8940
59.9043
59.9533
60.213
60.921
60.1586
60.1897
60.1854
60.1607
60.1234
60.771
60.211
59.9816
59.9517
59.9059
59.8769
59.8726
59.8737
59.8675
59.9062
59.9998
60.973
60.1522
60.1818
60.1970
60.1719
60.996
60.374
59.9796
59.9233
59.8537
59.8233
59.8334
59.8397
59.8443
59.8750
59.9428
60.106
60.778
60.1190
60.1302
60.1161
60.941
60.581
60.84
59.9569
59.9322
59.8868
59.8557
59.8575
59.8661
59.8628
59.8855
59.9702
60.695
60.1434
60.1855
60.2138
60.2091
60.1455
60.720
60.167
59.9529
59.8805
59.8348
59.8393
59.8464
59.8469
59.8685
59.9323
60.5
60.734
60.1294
60.1490
60.1383
60.1109
60.714
60.211
59.9642
59.9325
59.8928
59.8509
59.8294
59.8341
59.8312
59.8372
59.8968
59.9977
60.855
60.1321
60.1594
60.1691
60.1277
60.505
59.9918
59.9318
59.8724
59.8116
59.8025
59.8158
59.8277
59.8413
59.8926
59.9689
60.430
60.1081
60.1413
60.1423
60.1259
60.946
60.507
59.9962
59.9554
59.9232
59.8787
59.8632
59.8745
59.8810
59.8781
59.9214
60.173
60.1148
60.1762
60.2112
60.2324
60.2088
60.1340
60.679
60.102
59.9457
59.8734
59.8508
59.8588
59.8665
59.8698
59.9053
59.9755
60.448
60.1143
60.1624
60.1689
60.1497
60.1164
60.726
60.189
59.9645
59.9338
59.8920
59.8581
59.8454
59.8467
59.8378
59.8573
59.9388
60.417
60.1095
60.1448
60.1686
60.1611
60.1027
60.326
59.9806
59.9227
59.8551
59.8080
59.8053
59.8154
59.8201
59.8359
59.8949
59.9668
60.378
60.922
60.1141
60.1068
60.875
60.575
60.165
59.9641
59.9320
59.8934
59.8509
59.8399
59.8518
59.8509
59.8525
59.9137
60.154
60.1035
60.1493
60.1803
60.1941
60.1540
60.773
60.202
59.9611
59.8971
59.8366
59.8300
59.8432
59.8411
59.8492
59.8930
59.9609
60.284
60.895
60.1221
60.1226
60.1012
60.718
60.272
59.9742
59.9328
59.8961
59.8524
59.8233
59.8202
59.8182
59.8125
59.8516
59.9465
60.512
60.1113
60.1429
60.1637
60.1432
60.731
60.68
59.9517
59.8933
59.8224
59.7919
59.8012
59.8125
59.8225
59.8553
59.9229
59.9955
60.674
60.1182
60.1329
60.1222
60.1009
60.667
60.184
59.9700
59.9432
59.8999
59.8676
59.8702
59.8809
59.8752
59.8951
59.9732
60.767
60.1534
60.1956
60.2272
60.2271
60.1708
60.980
60.412
59.9802
59.9096
59.8616
59.8655
59.8755
59.8733
59.8927
59.9494
60.180
60.854
60.1463
60.1706
60.1582
60.1309
60.964
60.478
59.9911
59.9603
59.9247
59.8863
59.8623
59.8659
59.8615
59.8601
59.9194
60.185
60.1054
60.1480
60.1757
60.1865
60.1467
60.735
60.171
59.9607
59.9004
59.8411
59.8320
59.8446
59.8524
59.8652
59.9153
59.9865
60.575
60.1153
60.1463
60.1462
60.1313
60.1015
60.594
60.53
59.9641
59.9313
59.8859
59.8670
59.8788
59.8823
59.8743
59.9137
60.63
60.1004
60.1574
60.1922
60.2141
60.1925
60.1201
60.550
59.9973
59.9374
59.8655
59.8458
59.8561
59.8684
59.8724
59.9045
59.9717
60.390
60.1072
60.1557
60.1641
60.1472
60.1157
60.732
60.215
59.9717
59.9462
59.9043
59.8707
59.8570
59.8614
59.8571
59.8724
59.9505
60.509
60.1213
60.1505
60.1746
60.1688
60.1122
60.414
59.9853
59.9279
59.8607
59.8135
59.8130
59.8254
59.8313
59.8475
59.9030
59.9738
60.427
60.988
60.1227
60.1141
60.961
60.637
60.207
59.9712
59.9413
59.9061
59.8652
59.8526
59.8596
59.8602
59.8633
59.9247
60.226
60.1108
60.1604
60.1930
60.2045
60.1616
60.854
60.282
59.9695
59.9061
59.8427
59.8354
59.8477
59.8529
59.8638
59.9137
59.9823
60.476
60.1136
60.1491
60.1503
60.1255
60.907
60.441
59.9908
59.9450
59.9129
59.8727
59.8439
59.8423
59.8432
59.8389
59.8742
59.9626
60.580
60.1143
60.1432
60.1606
60.1374
60.706
60.72
59.9514
59.8948
59.8265
59.7959
59.8046
59.8172
59.8238
59.8548
59.9228
59.9931
60.588
60.1054
60.1160
60.1045
60.785
60.366
59.9874
59.9376
59.9132
59.8720
59.8425
59.8437
59.8567
59.8545
59.8770
59.9575
60.603
60.1372
60.1758
60.2049
60.2014
60.1409
60.668
60.89
59.9500
59.8848
59.8406
59.8433
59.8559
59.8576
59.8758
59.9328
60.16
60.677
60.1272
60.1513
60.1385
60.1086
60.687
60.206
59.9605
59.9269
59.8877
59.8472
59.8244
59.8266
59.8243
59.8249
59.8802
59.9791
60.661
60.1105
60.1371
60.1468
60.1099
60.369
59.9779
59.9190
59.8599
59.7971
59.7782
59.7915
59.8009
59.8106
59.8526
59.9234
59.9954
60.580
60.910
60.921
60.783
60.502
60.77
59.9559
59.9098
59.8836
59.8391
59.8195
59.8270
59.8355
59.8305
59.8655
59.9560
60.522
60.1171
60.1551
60.1796
60.1587
60.889
60.193
59.9643
59.9074
59.8358
59.8081
59.8181
59.8233
59.8262
59.8546
59.9180
59.9859
60.527
60.1012
60.1127
60.982
60.684
60.271
59.9808
59.9299
59.9016
59.8618
59.8284
59.8123
59.8137
59.8071
59.8154
59.8880
59.9909
60.688
60.1047
60.1305
60.1335
60.810
60.94
59.9565
59.8986
59.8351
59.7819
59.7815
59.7956
59.8042
59.8194
59.8759
59.9492
60.218
60.837
60.1101
60.1074
60.921
60.594
60.152
59.9592
59.9257
59.8881
59.8463
59.8327
59.8478
59.8499
59.8526
59.9060
60.52
60.966
60.1472
60.1811
60.1961
60.1619
60.877
60.273
59.9664
59.9048
59.8346
59.8234
59.8379
59.8436
59.8483
59.8915
59.9594
60.286
60.946
60.1390
60.1381
60.1140
60.783
60.310
59.9806
59.9313
59.8999
59.8552
59.8240
59.8182
59.8197
59.8154
59.8407
59.9272
60.259
60.888
60.1192
60.1434
60.1305
60.667
59.9976
59.9454
59.8874
59.8179
59.7810
59.7885
59.8063
59.8095
59.8317
59.8963
59.9680
60.352
60.850
60.1046
60.942
60.702
60.378
59.9878
59.9349
59.9093
59.8638
59.8296
59.8268
59.8375
59.8338
59.8439
59.9139
60.115
60.961
60.1401
60.1707
60.1764
60.1278
60.525
59.9942
59.9325
59.8671
59.8124
59.8066
59.8179
59.8188
59.8366
59.8905
59.9619
60.312
60.922
60.1231
60.1185
60.941
60.568
60.98
59.9550
59.9179
59.8834
59.8451
59.8181
59.8177
59.8159
59.8108
59.8564
59.9566
60.516
60.1014
60.1316
60.1472
60.1152
60.456
59.9868
59.9306
59.8720
59.8044
59.7843
59.8004
59.8114
59.8211
59.8574
59.9255
59.9974
60.607
60.1005
60.1056
60.914
60.616
60.227
59.9754
59.9288
59.9057
59.8642
59.8410
59.8454
59.8571
59.8546
59.8823
59.9646
60.627
60.1328
60.1672
60.1896
60.1790
60.1131
60.450
59.9908
59.9346
59.8639
59.8291
59.8382
59.8506
59.8561
59.8840
59.9439
60.67
60.760
60.1316
60.1470
60.1282
60.975
60.585
60.109
59.9593
59.9342
59.8941
59.8573
59.8394
59.8446
59.8361
59.8384
59.9007
60.3
60.803
60.1172
60.1390
60.1462
60.985
60.285
59.9725
59.9183
59.8614
59.8059
59.8020
59.8198
59.8283
59.8392
59.8891
59.9613
60.306
60.924
60.1222
60.1193
60.993
60.700
60.254
59.9700
59.9312
59.8988
59.8552
59.8371
59.8485
59.8559
59.8519
59.8974
59.9962
60.934
60.1502
60.1890
60.2093
60.1832
60.1081
60.443
59.9855
59.9241
59.8526
59.8314
59.8456
59.8538
59.8573
59.8924
59.9623
60.299
60.948
60.1394
60.1409
60.1217
60.866
60.459
59.9915
59.9425
59.9132
59.8715
59.8403
59.8323
59.8378
59.8347
59.8576
59.9389
60.396
60.1068
60.1362
60.1583
60.1474
60.841
60.118
59.9566
59.8997
59.8328
59.7862
59.7913
59.8051
59.8129
59.8343
59.8973
59.9689
60.385
60.889
60.1076
60.973
60.747
60.426
59.9967
59.9399
59.9103
59.8701
59.8348
59.8262
59.8409
59.8361
59.8403
59.9086
60.130
60.1001
60.1490
60.1808
60.1887
60.1397
60.578
59.9981
59.9360
59.8715
59.8117
59.8037
59.8181
59.8218
59.8313
59.8839
59.9554
60.245
60.881
60.1201
60.1153
60.890
60.539
60.80
59.9510
59.9085
59.8756
59.8318
59.8076
59.8058
59.8035
59.7987
59.8383
59.9306
60.313
60.849
60.1138
60.1333
60.1123
60.442
59.9808
59.9267
59.8691
59.7984
59.7719
59.7817
59.7937
59.8018
59.8358
59.9042
59.9786
60.465
60.931
60.1024
60.901
60.640
60.283
59.9786
59.9276
59.9003
59.8575
59.8289
59.8294
59.8396
59.8361
59.8594
59.9395
60.410
60.1180
60.1585
60.1886
60.1871
60.1301
60.586
60.65
59.9472
59.8782
59.8287
59.8317
59.8392
59.8380
59.8562
59.9173
59.9871
60.551
60.1174
60.1402
60.1298
60.1024
60.647
60.204
59.9619
59.9292
59.8905
59.8511
59.8284
59.8293
59.8250
59.8246
59.8793
59.9804
60.676
60.1100
60.1361
60.1490
60.1119
60.411
59.9827
59.9282
59.8713
59.8086
59.7946
59.8086
59.8169
59.8282
59.8719
59.9435
60.125
60.714
60.1073
60.1093
60.946
60.688
60.281
59.9774
59.9333
59.9044
59.8611
59.8359
59.8462
59.8516
59.8428
59.8828
59.9743
60.754
60.1400
60.1740
60.2037
60.1837
60.1134
60.477
59.9918
59.9370
59.8654
59.8405
59.8464
59.8531
59.8528
59.8828
59.9443
60.127
60.806
60.1280
60.1410
60.1265
60.993
60.611
60.111
59.9590
59.9309
59.8880
59.8522
59.8348
59.8373
59.8288
59.8409
59.9125
60.142
60.929
60.1302
60.1536
60.1513
60.961
60.278
59.9783
59.9194
59.8547
59.8016
59.8024
59.8143
59.8187
59.8367
59.8944
59.9632
60.323
60.897
60.1170
60.1148
60.960
60.649
60.250
59.9772
59.9434
59.9071
59.8650
59.8500
59.8603
59.8619
59.8596
59.9164
60.166
60.1035
60.1562
60.1927
60.2069
60.1707
60.952
60.378
59.9785
59.9147
59.8505
59.8376
59.8524
59.8554
59.8645
59.9116
59.9853
60.510
60.1162
60.1547
60.1535
60.1337
60.1009
60.522
60.3
59.9557
59.9253
59.8834
59.8537
59.8516
59.8555
59.8472
59.8805
59.9724
60.716
60.1335
60.1659
60.1865
60.1670
60.991
60.318
59.9743
59.9181
59.8491
59.8181
59.8293
59.8430
59.8540
59.8854
59.9524
60.263
60.951
60.1452
60.1572
60.1466
60.1224
60.848
60.359
59.9856
59.9586
59.9161
59.8825
59.8860
59.8992
59.8945
59.9131
59.9914
60.934
60.1712
60.2150
60.2452
60.2453
60.1866
60.1131
60.548
59.9930
59.9237
59.8768
59.8814
59.8906
59.8926
59.9138
59.9728
60.418
60.1127
60.1683
60.1890
60.1742
60.1470
60.1084
60.592
60.39
59.9709
59.9306
59.8910
59.8686
59.8702
59.8633
59.8661
59.9235
60.279
60.1193
60.1661
60.1930
60.2033
60.1659
60.892
60.295
59.9684
59.9049
59.8375
59.8176
59.8322
59.8414
59.8537
59.8986
59.9689
60.437
60.1072
60.1448
60.1483
60.1301
60.1038
60.605
60.76
59.9622
59.9313
59.8848
59.8615
59.8689
59.8774
59.8721
59.9102
60.28
60.1043
60.1680
60.2050
60.2292
60.2063
60.1368
60.689
60.76
59.9468
59.8782
59.8509
59.8652
59.8735
59.8760
59.9065
59.9729
60.446
60.1157
60.1687
60.1814
60.1639
60.1310
60.890
60.355
59.9784
59.9468
59.9017
59.8642
59.8486
59.8521
59.8459
59.8570
59.9324
60.367
60.1106
60.1457
60.1675
60.1667
60.1101
60.392
59.9823
59.9243
59.8550
59.8070
59.8079
59.8243
59.8360
59.8544
59.9142
59.9881
60.600
60.1171
60.1377
60.1313
60.1098
60.750
60.268
59.9688
59.9348
59.8964
59.8561
59.8438
59.8589
59.8614
59.8661
59.9295
60.293
60.1187
60.1671
60.2036
60.2154
60.1714
60.939
60.310
59.9697
59.9034
59.8409
59.8292
59.8390
59.8429
59.8523
59.8988
59.9708
60.425
60.1121
60.1516
60.1468
60.1259
60.892
60.407
59.9839
59.9352
59.8989
59.8553
59.8243
59.8214
59.8184
59.8163
59.8506
59.9429
60.445
60.1042
60.1346
60.1519
60.1298
60.584
59.9854
59.9251
59.8695
59.7981
59.7623
59.7701
59.7851
59.7922
59.8226
59.8908
59.9631
60.311
60.801
60.949
60.844
60.566
60.236
59.9741
59.9222
59.8954
59.8502
59.8138
59.8093
59.8206
59.8157
59.8317
59.9087
60.121
60.883
60.1342
60.1621
60.1622
60.1082
60.344
59.9763
59.9159
59.8446
59.7906
59.7925
59.8036
59.8035
59.8183
59.8739
59.9428
60.125
60.746
60.1011
60.939
60.677
60.364
59.9898
59.9363
59.8991
59.8641
59.8179
59.7914
59.7905
59.7880
59.7874
59.8369
59.9345
60.316
60.828
60.1131
60.1301
60.992
60.264
59.9661
59.9104
59.8554
59.7896
59.7739
59.7846
59.7999
59.8106
59.8508
59.9238
59.9949
60.595
60.997
60.1035
60.906
60.656
60.275
59.9768
59.9336
59.9089
59.8633
59.8379
59.8420
59.8488
59.8431
59.8722
59.9568
60.593
60.1310
60.1717
60.2044
60.1900
60.1254
60.595
60.52
59.9442
59.8729
59.8378
59.8434
59.8498
59.8485
59.8747
59.9364
60.79
60.753
60.1333
60.1485
60.1349
60.1079
60.703
60.214
59.9700
59.9411
59.8973
59.8584
59.8377
59.8385
59.8331
59.8360
59.9032
60.52
60.833
60.1196
60.1454
60.1481
60.995
60.279
59.9751
59.9238
59.8638
59.8095
59.8056
59.8204
59.8259
59.8434
59.8938
59.9678
60.402
60.974
60.1244
60.1213
60.1017
60.703
60.274
59.9730
59.9388
59.9045
59.8601
59.8410
59.8543
59.8564
59.8511
59.8999
60.6
60.994
60.1578
60.1959
60.2178
60.1885
60.1136
60.533
59.9962
59.9344
59.8651
59.8469
59.8604
59.8623
59.8664
59.9100
59.9760
60.469
60.1157
60.1601
60.1676
60.1475
60.1152
60.730
60.201
59.9717
59.9402
59.8950
59.8620
59.8562
59.8594
59.8535
59.8802
59.9623
60.666
60.1354
60.1675
60.1933
60.1832
60.1228
60.557
59.9985
59.9419
59.8765
59.8346
59.8391
59.8504
59.8549
59.8797
59.9446
60.162
60.837
60.1352
60.1563
60.1539
60.1376
60.1080
60.614
60.90
59.9825
59.9419
59.9034
59.8959
59.9055
59.9032
59.9090
59.9785
60.771
60.1596
60.2055
60.2405
60.2498
60.2001
60.1251
60.718
60.120
59.9389
59.8833
59.8810
59.8900
59.8903
59.9024
59.9569
60.264
60.967
60.1597
60.1923
60.1906
60.1695
60.1353
60.916
60.338
59.9970
59.9591
59.9122
59.8831
59.8798
59.8749
59.8696
59.9181
60.196
60.1127
60.1638
60.1949
60.2078
60.1785
60.1045
60.438
59.9853
59.9280
59.8618
59.8427
59.8549
59.8645
59.8735
59.9145
59.9820
60.533
60.1195
60.1591
60.1647
60.1519
60.1252
60.858
60.357
59.9882
59.9584
59.9110
59.8845
59.8883
59.8932
59.8846
59.9170
60.40
60.1079
60.1748
60.2110
60.2400
60.2290
60.1632
60.1005
60.472
59.9860
59.9126
59.8757
59.8799
59.8855
59.8853
59.9058
59.9677
60.382
60.1084
60.1608
60.1758
60.1602
60.1342
60.962
60.518
59.9987
59.9721
59.9269
59.8882
59.8686
59.8711
59.8606
59.8678
59.9343
60.357
60.1120
60.1513
60.1782
60.1851
60.1356
60.685
60.176
59.9626
59.8979
59.8392
59.8317
59.8416
59.8424
59.8573
59.9084
59.9796
60.495
60.1065
60.1354
60.1377
60.1198
60.906
60.498
59.9959
59.9581
59.9234
59.8809
59.8625
59.8737
59.8707
59.8687
59.9198
60.195
60.1152
60.1683
60.2067
60.2275
60.1965
60.1215
60.638
60.70
59.9460
59.8750
59.8603
59.8682
59.8706
59.8741
59.9158
59.9851
60.514
60.1187
60.1608
60.1641
60.1407
60.1110
60.670
60.144
59.9667
59.9391
59.8913
59.8566
59.8462
59.8466
59.8355
59.8613
59.9476
60.525
60.1193
60.1534
60.1798
60.1679
60.1040
60.407
59.9887
59.9302
59.8613
59.8219
59.8264
59.8395
59.8455
59.8694
59.9304
60.16
60.730
60.1237
60.1436
60.1378
60.1158
60.809
60.344
59.9817
59.9516
59.9096
59.8718
59.8657
59.8795
59.8766
59.8914
59.9633
60.673
60.1485
60.1933
60.2257
60.2255
60.1737
60.996
60.412
59.9803
59.9103
59.8564
59.8568
59.8669
59.8682
59.8829
59.9398
60.99
60.827
60.1462
60.1764
60.1698
60.1397
60.1036
60.542
59.9973
59.9610
59.9233
59.8791
59.8534
59.8559
59.8531
59.8499
59.9002
59.9970
60.907
60.1412
60.1693
60.1867
60.1505
60.783
60.161
59.9600
59.8975
59.8295
59.8102
59.8227
59.8311
59.8402
59.8800
59.9533
60.260
60.940
60.1350
60.1415
60.1273
60.1004
60.609
60.94
59.9660
59.9366
59.8899
59.8620
59.8693
59.8756
59.8709
59.9010
59.9938
60.939
60.1626
60.2034
60.2391
60.2270
60.1630
60.970
60.441
59.9851
59.9120
59.8783
59.8820
59.8875
59.8886
59.9199
59.9848
60.535
60.1249
60.1798
60.1953
60.1812
60.1551
60.1156
60.675
60.143
59.9858
59.9454
59.9104
59.8930
59.8983
59.8940
59.9038
59.9722
60.787
60.1567
60.1949
60.2219
60.2256
60.1749
60.1018
60.504
59.9931
59.9271
59.8738
59.8692
59.8799
59.8850
59.8989
59.9520
60.238
60.942
60.1573
60.1879
60.1882
60.1699
60.1398
60.951
60.392
60.23
59.9670
59.9246
59.9108
59.9216
59.9240
59.9225
59.9796
60.808
60.1762
60.2273
60.2629
60.2832
60.2482
60.1716
60.1131
60.542
59.9873
59.9203
59.9088
59.9196
59.9211
59.9277
59.9734
60.410
60.1103
60.1786
60.2168
60.2163
60.1943
60.1604
60.1145
60.623
60.151
59.9782
59.9377
59.9059
59.9003
59.8970
59.8943
59.9273
60.185
60.1204
60.1788
60.2123
60.2351
60.2181
60.1485
60.814
60.248
59.9697
59.8969
59.8649
59.8731
59.8851
59.8932
59.9221
59.9885
60.655
60.1360
60.1816
60.1949
60.1804
60.1554
60.1168
60.704
60.170
59.9889
59.9422
59.9071
59.9067
59.9153
59.9129
59.9316
60.136
60.1170
60.1948
60.2394
60.2705
60.2674
60.2066
60.1321
60.770
60.159
59.9460
59.8944
59.8931
59.9035
59.9046
59.9208
59.9800
60.507
60.1186
60.1783
60.2059
60.1983
60.1702
60.1330
60.847
60.290
59.9954
59.9544
59.9145
59.8909
59.8910
59.8883
59.8900
59.9459
60.481
60.1385
60.1829
60.2109
60.2245
60.1845
60.1114
60.518
59.9976
59.9413
59.8782
59.8654
59.8782
59.8871
59.8968
59.9410
60.145
60.875
60.1495
60.1846
60.1908
60.1720
60.1444
60.1042
60.549
60.123
59.9807
59.9359
59.9127
59.9220
59.9302
59.9233
59.9611
60.580
60.1582
60.2202
60.2567
60.2768
60.2552
60.1819
60.1141
60.581
59.9980
59.9239
59.8992
59.9084
59.9158
59.9172
59.9523
60.221
60.903
60.1614
60.2086
60.2157
60.1957
60.1672
60.1252
60.724
60.188
59.9922
59.9507
59.9149
59.9020
59.9022
59.8968
59.9109
59.9889
60.939
60.1645
60.2010
60.2240
60.2201
60.1639
60.922
60.394
59.9835
59.9190
59.8730
59.8758
59.8878
59.8977
59.9161
59.9772
60.497
60.1179
60.1685
60.1887
60.1783
60.1577
60.1271
60.832
60.289
59.9979
59.9577
59.9182
59.9113
59.9255
59.9303
59.9357
60.2
60.1018
60.1855
60.2332
60.2655
60.2732
60.2300
60.1533
60.956
60.348
59.9742
59.9123
59.9045
59.9154
59.9159
59.9251
59.9757
60.449
60.1137
60.1793
60.2120
60.2048
60.1805
60.1449
60.974
60.414
60.7
59.9681
59.9238
59.8925
59.8903
59.8895
59.8851
59.9255
60.213
60.1191
60.1740
60.2009
60.2179
60.1941
60.1260
60.630
60.58
59.9473
59.8779
59.8532
59.8667
59.8807
59.8899
59.9272
59.9957
60.677
60.1352
60.1759
60.1862
60.1703
60.1434
60.1082
60.607
60.111
59.9833
59.9361
59.9076
59.9091
59.9208
59.9133
59.9363
60.200
60.1226
60.1964
60.2380
60.2709
60.2639
60.2020
60.1281
60.741
60.111
59.9384
59.8968
59.9014
59.9093
59.9118
59.9330
59.9970
60.700
60.1427
60.1997
60.2180
60.2015
60.1709
60.1349
60.826
60.300
60.20
59.9579
59.9189
59.8990
59.9022
59.8963
59.9016
59.9671
60.703
60.1553
60.1992
60.2257
60.2327
60.1857
60.1145
60.588
60.0
59.9357
59.8809
59.8755
59.8890
59.8955
59.9098
59.9614
60.336
60.1054
60.1659
60.1956
60.1960
60.1761
60.1487
60.1105
60.618
60.281
59.9966
59.9548
59.9367
59.9447
59.9471
59.9424
59.9930
60.858
60.1791
60.2332
60.2676
60.2853
60.2522
60.1753
60.1128
60.561
59.9988
59.9312
59.9160
59.9263
59.9303
59.9352
59.9762
60.463
60.1139
60.1784
60.2222
60.2259
60.2018
60.1712
60.1283
60.738
60.254
59.9968
59.9522
59.9196
59.9088
59.9076
59.8976
59.9208
60.66
60.1086
60.1739
60.2023
60.2259
60.2156
60.1542
60.870
60.309
59.9742
59.9077
59.8700
59.8737
59.8874
59.8935
59.9168
59.9809
60.495
60.1139
60.1617
60.1766
60.1659
60.1461
60.1110
60.630
60.116
59.9865
59.9429
59.9052
59.8992
59.9102
59.9057
59.9142
59.9877
60.871
60.1648
60.2103
60.2438
60.2489
60.1974
60.1211
60.633
60.49
59.9362
59.8844
59.8840
59.8942
59.8926
59.9055
59.9597
60.296
60.988
60.1611
60.1884
60.1795
60.1536
60.1184
60.737
60.225
59.9884
59.9540
59.9132
59.8865
59.8842
59.8831
59.8794
59.9259
60.233
60.1164
60.1669
60.1912
60.2044
60.1692
60.974
60.387
59.9815
59.9214
59.8529
59.8360
59.8456
59.8564
59.8634
59.9034
59.9732
60.457
60.1124
60.1535
60.1610
60.1478
60.1256
60.881
60.360
59.9884
59.9601
59.9141
59.8868
59.8916
59.9009
59.8915
59.9248
60.145
60.1167
60.1842
60.2244
60.2540
60.2336
60.1630
60.959
60.428
59.9805
59.9106
59.8767
59.8848
59.8935
59.8955
59.9265
59.9937
60.656
60.1340
60.1834
60.1992
60.1799
60.1479
60.1064
60.541
60.7
59.9725
59.9282
59.8872
59.8697
59.8726
59.8673
59.8812
59.9526
60.583
60.1365
60.1755
60.2018
60.2051
60.1517
60.776
60.248
59.9674
59.9000
59.8497
59.8485
59.8658
59.8728
59.8887
59.9425
60.145
60.803
60.1364
60.1590
60.1567
60.1382
60.1065
60.673
60.157
59.9820
59.9494
59.9067
59.8923
59.9065
59.9026
59.9002
59.9544
60.510
60.1399
60.1903
60.2222
60.2407
60.2018
60.1286
60.720
60.120
59.9533
59.8867
59.8767
59.8892
59.8935
59.9023
59.9446
60.123
60.796
60.1445
60.1825
60.1831
60.1582
60.1230
60.784
60.294
59.9862
59.9613
59.9210
59.8953
59.8914
59.8949
59.8917
59.9253
60.189
60.1229
60.1903
60.2291
60.2527
60.2438
60.1823
60.1275
60.843
60.447
59.9941
59.9738
59.9993
60.236
60.452
60.917
60.1755
60.2638
60.3506
60.4160
60.4439
60.4526
60.4486
60.4331
60.4047
60.3875
60.3922
60.3776
60.3762
60.4101
60.4427
60.4676
60.5249
60.6443
60.7737
60.8733
60.9433
61.35
61.208
60.9833
60.9499
60.9341
60.9200
60.8907
60.9093
60.9665
61.56
61.507
61.1321
61.2344
61.3425
61.4548
61.5361
61.5806
61.6033
61.6128
61.6089
61.6058
61.6272
61.6493
61.6631
61.6980
61.7533
61.7985
61.8493
61.9616
62.1187
62.2584
62.3604
62.4488
62.5061
62.5017
62.4894
62.4919
62.5048
62.5026
62.5391
62.6175
62.6961
62.7647
62.8683
62.9963
63.1335
63.2671
63.3690
63.4410
63.4928
63.5289
63.5508
63.5719
63.6263
63.6621
63.7089
63.7938
63.8781
63.9424
64.465
64.2152
64.3908
64.5294
64.6494
64.7453
64.7720
64.7720
64.7964
64.8284
64.8491
64.9141
65.149
65.1062
65.1975
65.3284
65.4860
65.6471
65.7990
65.9158
65.9946
66.537
66.996
66.1348
66.2031
66.2752
66.3351
66.4223
66.5237
66.6068
66.7179
66.9058
67.1144
67.2766
67.4179
67.5340
67.5810
67.6039
67.6528
67.7070
67.7538
67.8563
67.9794
68.904
68.2151
68.3838
68.5677
68.7507
68.8988
69.83
69.988
69.1675
69.2235
69.3083
69.4029
69.4823
69.6032
69.7247
69.8249
69.9728
70.1958
70.4141
70.5914
70.7576
70.8663
70.9064
70.9611
71.415
71.1067
71.2135
71.3607
71.4821
71.6175
71.8003
71.9988
72.2063
72.3763
72.5045
72.6050
72.6891
72.7694
72.8921
73.10
73.1113
73.2453
73.3686
73.4983
73.7192
73.9699
74.1725
74.3555
74.4946
74.5556
74.6301
74.7329
74.8229
74.9574
75.1241
75.2701
75.4337
75.6470
75.8685
76.740
76.2335
76.3659
76.4730
76.5648
76.6962
76.8293
76.9557
77.1170
77.2567
77.3978
77.6387
77.9031
78.1196
78.3219
78.4542
78.5206
78.6247
78.7396
78.8564
79.402
79.2029
79.3579
79.5771
79.8190
80.605
80.2450
80.3983
80.5184
80.6326
80.7953
80.9472
81.948
81.2583
81.3949
81.5799
81.8659
82.1290
82.3478
82.5421
82.6358
82.7420
82.8810
83.68
83.1947
83.3809
83.5467
83.7678
84.241
84.2674
84.4572
84.6209
84.7477
84.8760
85.552
85.2078
85.3918
85.5658
85.7164
85.9853
86.2868
86.5341
86.7582
86.8778
86.9844
87.1355
87.2771
87.4924
87.6818
87.8653
88.1151
88.3908
88.6439
88.8373
88.9966
89.1305
89.3126
89.5014
89.6822
89.8690
90.194
90.2715
90.5994
90.8591
91.1002
91.2370
91.3610
91.5338
91.6910
91.9201
92.1202
92.3238
92.5974
92.8773
93.1061
93.2978
93.4519
93.6076
93.8197
94.19
94.2166
94.3748
94.6037
94.9371
95.2196
95.4845
95.6260
95.7601
95.9410
96.1307
96.3865
96.5770
96.8121
97.1055
97.3995
97.6239
97.8064
97.9628
98.1934
98.4058
98.6244
98.8098
99.141
99.3627
99.6624
99.9352
100.961
100.2424
100.4402
100.6450
100.8983
101.985
101.3614
101.6712
101.9323
102.1468
102.3173
102.4995
102.7331
102.9545
103.1815
103.3451
103.6646
104.30
104.3037
104.4929
104.6330
104.8333
105.539
105.3308
105.5340
105.8184
106.1513
106.4306
106.6489
106.8233
107.542
107.3011
107.5441
107.7384
107.9841
108.3626
108.6701
108.9277
109.688
109.2715
109.4782
109.7565
109.9750
110.2482
110.5769
110.8510
111.793
111.2500
111.4792
111.7093
111.9648
112.1388
112.4327
112.8080
113.1316
113.3452
113.5035
113.7220
113.9982
114.2693
114.5028
114.8410
115.1723
115.4260
115.6182
115.8491
116.1239
116.3876
116.5783
116.8657
117.2651
117.5902
117.8009
117.9697
118.1966
118.4817
118.7317
118.9788
119.3256
119.6191
119.8606
120.359
120.2959
120.5422
120.7975
120.9766
121.3604
121.7159
122.54
122.1575
122.3923
122.6732
122.9651
123.2067
123.5675
123.9108
124.1698
124.3709
124.6678
124.9524
125.2066
125.4229
125.8470
126.2042
126.4588
126.6318
126.8789
127.1867
127.4321
127.7107
128.687
128.3509
128.5655
128.7821
129.548
129.3347
129.5059
129.8623
130.2393
130.5528
130.7080
130.9561
131.2747
131.5580
131.8436
132.2347
132.5563
132.7864
133.471
133.3708
133.6697
133.8653
134.2878
134.6783
134.9591
135.1489
135.4179
135.7572
135.9987
136.3226
136.6801
136.9543
137.1376
137.4345
137.7224
137.9323
138.2221
138.6284
138.9716
139.1278
139.3825
139.7238
139.9967
140.3016
140.6989
141.29
141.2145
141.5520
141.8781
142.1145
142.4527
142.8948
143.2399
143.4230
143.7035
144.579
144.3051
144.6480
144.9946
145.2584
145.4532
145.7579
146.582
146.2228
146.6209
147.6
147.2083
147.4237
147.7322
148.428
148.3135
148.7101
149.141
149.2115
149.5472
149.8777
150.779
150.4611
150.8683
151.1378
151.3567
151.6630
151.9908
152.2401
152.5965
152.8695
153.486
153.3347
153.6373
153.7915
154.1332
154.4949
154.6964
154.8924
155.2059
155.4912
155.7479
156.910
156.3295
156.5108
156.8427
157.1278
157.2884
157.6666
157.9759
158.912
158.3100
158.6214
158.7997
159.909
159.3127
159.4172
159.5161
159.6321
159.6823
159.8054
159.9853
160.1932
160.3906
160.7443
160.9227
161.1123
161.3189
161.5122
161.6132
161.8424
161.9064
161.9397
162.608
162.1431
162.347
162.1371
162.1569
162.1737
162.281
162.1340
161.9099
162.1107
161.9408
162.31
161.8002
162.232
161.6878
161.8406
161.7034
161.8637
161.6293
161.8076
161.5626
161.7482
161.5794
161.6662
161.5447
161.7185
161.5855
161.5792
161.5459
161.6590
161.6054
161.5518
161.5448
161.3875
161.4950
161.4428
161.4741
161.3612
161.5335
161.2733
161.4437
161.3632
161.5216
161.3094
161.5154
161.2524
161.5024
161.3303
161.5113
161.3173
161.5602
161.2755
161.4453
161.3143
161.5367
161.3521
161.4341
161.2832
161.3225
161.2394
161.2927
161.2061
161.1945
161.2234
161.467
161.1520
161.1633
161.2362
161.811
161.2225
161.35
161.2405
161.1492
161.2889
161.1614
161.4207
161.1355
161.3532
161.2240
161.4546
161.2146
161.3788
161.1031
161.2678
161.950
161.2288
161.451
161.1425
160.9854
160.9624
160.9311
161.245
160.9907
160.9419
160.9936
160.8975
161.505
161.161
161.823
160.9946
161.2087
160.9763
161.1750
161.966
161.2789
161.467
161.2377
160.9542
161.1640
160.9557
161.1145
160.8719
161.545
160.7961
160.8865
160.7835
160.9545
160.8052
160.8690
160.7863
160.7550
160.7984
160.8269
160.8087
160.8000
160.9302
160.7471
160.9046
160.8717
161.32
160.8291
160.9603
160.6912
160.9126
160.7429
160.8981
160.6733
160.9044
160.6061
160.7633
160.5881
160.7808
160.5772
160.7191
160.5370
160.6099
160.5659
160.6572
160.6040
160.6404
160.7013
160.5767
160.6971
160.7077
160.7931
160.6655
160.7867
160.5442
160.7452
160.6038
160.7218
160.5104
160.7494
160.4369
160.6262
160.4867
160.7103
160.4685
160.6388
160.4039
160.5336
160.4302
160.5459
160.4334
160.5072
160.4792
160.4238
160.4951
160.5391
160.5799
160.4529
160.5503
160.3509
160.5377
160.4315
160.5205
160.3505
160.5794
160.2703
160.4703
160.3345
160.5606
160.3469
160.5591
160.3232
160.4878
160.3380
160.4534
160.2814
160.4407
160.3206
160.2822
160.3025
160.3646
160.3700
160.2924
160.3679
160.2008
160.3590
160.2447
160.3238
160.1485
160.3630
160.810
160.2863
160.1753
160.3746
160.1254
160.3491
160.1112
160.3032
160.1408
160.2912
160.1163
160.2472
160.1352
160.1492
160.1536
160.2455
160.2330
160.1260
160.1920
160.159
160.1740
160.968
160.1684
160.231
160.2291
159.9075
160.1103
160.18
160.2264
160.67
160.2321
159.9779
160.1750
159.9982
160.1461
159.9809
160.1290
159.9728
159.9838
159.9871
160.821
160.621
159.9881
160.75
159.8504
160.83
159.9312
159.9932
159.8200
160.448
159.7830
159.9870
159.8764
160.862
159.8552
160.669
159.8405
160.269
159.8566
160.21
159.8359
159.9617
159.8265
159.8243
159.8390
159.9074
159.9031
159.8205
159.8703
159.7195
159.8849
159.7817
159.8695
159.7192
159.9530
159.6656
159.8643
159.7456
159.9550
159.7386
159.9065
159.6580
159.8242
159.6876
159.8165
159.6531
159.7859
159.6832
159.6463
159.6950
159.7731
159.7846
159.6955
159.7690
159.5690
159.7565
159.6539
159.7541
159.5771
159.8117
159.4969
159.6957
159.5509
159.7680
159.5372
159.7662
159.5194
159.6589
159.5427
159.6451
159.5368
159.6087
159.5838
159.4971
159.5878
159.6330
159.6697
159.5431
159.6601
159.4571
159.6617
159.5267
159.6491
159.4570
159.7063
159.3982
159.5739
159.4365
159.6546
159.4222
159.5637
159.3679
159.4306
159.3603
159.4482
159.3918
159.4040
159.4575
159.3161
159.4577
159.4707
159.5857
159.4214
159.5846
159.3677
159.5911
159.4025
159.5528
159.3461
159.5926
159.3015
159.4367
159.2733
159.4682
159.2871
159.3732
159.2191
159.2119
159.2452
159.2786
159.2867
159.2626
159.3883
159.1914
159.3850
159.3578
159.5280
159.3388
159.5356
159.2510
159.4751
159.2898
159.4475
159.2120
159.4121
159.1594
159.2350
159.1251
159.2823
159.1527
159.1521
159.1356
159.684
159.1923
159.1696
159.2306
159.1616
159.3733
159.1265
159.3412
159.2539
159.4614
159.2464
159.4342
159.1604
159.3518
159.1608
159.2793
159.722
159.2094
159.549
159.374
159.148
159.994
159.933
158.9878
159.722
158.9373
159.1397
159.567
159.1791
159.700
159.3207
159.698
159.2902
159.1523
159.3779
159.1421
159.3180
159.471
159.1620
159.145
159.1066
158.9613
158.9698
158.9321
158.7996
158.8974
158.9287
159.185
158.8750
159.574
158.8372
159.883
158.9674
159.1284
158.9590
159.2059
158.9145
159.1069
159.27
159.2144
159.40
159.908
158.9489
158.9439
158.9189
158.9099
158.8834
158.8415
158.9609
158.7397
158.8996
158.8587
159.39
158.7784
158.9665
158.7130
158.9822
158.8121
158.9974
158.8028
159.281
158.8375
158.9133
158.8300
158.9650
158.8790
158.8539
158.8490
158.7075
158.8332
158.7607
158.8258
158.6717
158.8755
158.6196
158.8248
158.7174
158.9243
158.6860
158.8972
158.6498
158.8288
158.6873
158.8123
158.6554
158.7488
158.6787
158.6235
158.7123
158.7507
158.8193
158.6919
158.8182
158.5906
158.8033
158.6702
158.8130
158.6132
158.8666
158.5446
158.7087
158.5759
158.7588
158.5509
158.6504
158.4982
158.5147
158.5334
158.5765
158.5844
158.5531
158.6783
158.4631
158.6638
158.6495
158.8208
158.6013
158.7947
158.5505
158.7862
158.5781
158.7304
158.4987
158.6502
158.4443
158.4615
158.3974
158.5274
158.4762
158.4349
158.5152
158.3972
158.5657
158.5062
158.6004
158.4611
158.7202
158.4654
158.6868
158.5518
158.7733
158.5563
158.6866
158.4241
158.5449
158.3941
158.4880
158.3547
158.3877
158.3896
158.2554
158.3659
158.3764
158.4698
158.3132
158.5044
158.2599
158.5174
158.3688
158.5415
158.3929
158.6570
158.3634
158.5119
158.3984
158.5715
158.4021
158.4216
158.3467
158.2795
158.3439
158.3198
158.3507
158.2367
158.4146
158.1624
158.3555
158.2656
158.4614
158.2265
158.4415
158.1985
158.4094
158.2297
158.3776
158.2294
158.3534
158.2302
158.1802
158.2426
158.3041
158.3543
158.2677
158.4044
158.1760
158.3765
158.2414
158.3754
158.1487
158.3715
158.820
158.2519
158.1230
158.3302
158.1038
158.1718
158.730
158.962
158.1228
158.1557
158.1576
158.1076
158.2666
158.802
158.2859
158.2259
158.4102
158.2175
158.4245
158.1239
158.3286
158.1172
158.2703
158.668
158.2350
158.372
157.9996
157.9889
158.594
158.701
158.451
158.1495
157.9455
158.1530
158.581
158.1997
158.1025
158.3571
158.720
158.2732
158.1456
158.3528
158.1000
158.2382
158.174
158.442
157.9898
158.258
157.9830
157.9136
158.251
157.8264
158.9
157.9667
158.1337
157.9241
158.1153
157.8779
158.1336
157.9782
158.1474
157.9609
158.1743
157.9692
157.9880
157.9546
158.590
158.305
157.9422
158.123
157.8999
158.712
157.9652
158.508
157.8496
158.996
157.8113
158.111
157.8651
158.632
157.8295
157.9432
157.7742
157.8399
157.7995
157.8820
157.8484
157.8446
157.9716
157.8251
158.96
157.9632
158.1267
157.9407
158.1233
157.8598
158.823
157.8776
158.137
157.7803
157.9357
157.7458
157.7528
157.7061
157.8100
157.7814
157.6889
157.7884
157.6532
157.8679
157.7878
157.9168
157.7837
158.485
157.7792
157.9943
157.8647
158.747
157.8291
157.9607
157.7525
157.7688
157.7172
157.7510
157.7157
157.6634
157.7716
157.5446
157.7221
157.6895
157.8677
157.6552
157.8972
157.6314
157.8724
157.7076
157.8721
157.6928
157.8796
157.7026
157.6981
157.6935
157.7751
157.7808
157.6824
157.7789
157.5811
157.7782
157.6482
157.7750
157.5822
157.8286
157.5426
157.7283
157.5706
157.7744
157.5508
157.6755
157.5466
157.5533
157.5737
157.6020
157.6059
157.5680
157.7207
157.5143
157.7228
157.6679
157.8659
157.6618
157.8627
157.6051
157.7968
157.6064
157.7250
157.5262
157.6215
157.4813
157.3983
157.4427
157.4944
157.5508
157.4430
157.5657
157.3445
157.6021
157.4829
157.6633
157.5230
157.7849
157.5366
157.7140
157.5642
157.7389
157.5647
157.6074
157.5058
157.4548
157.5168
157.4873
157.5232
157.4385
157.6120
157.3204
157.5218
157.4282
157.6401
157.4205
157.6351
157.3454
157.5148
157.3710
157.4965
157.3834
157.4784
157.4755
157.3791
157.4949
157.5024
157.6071
157.4562
157.6210
157.3883
157.6176
157.4504
157.6087
157.3784
157.5819
157.2914
157.3701
157.2726
157.4138
157.3214
157.2971
157.3405
157.2057
157.3823
157.3402
157.4529
157.3269
157.5973
157.3588
157.5998
157.4736
157.6926
157.4282
157.5708
157.3840
157.4580
157.3452
157.3942
157.3239
157.2993
157.3764
157.1840
157.3391
157.2885
157.4513
157.2729
157.4699
157.2216
157.4717
157.3182
157.4926
157.2923
157.4857
157.3109
157.3296
157.3159
157.4087
157.4140
157.2888
157.3757
157.1764
157.3847
157.2606
157.3889
157.2067
157.4661
157.1763
157.3540
157.2160
157.4150
157.2071
157.2766
157.1634
157.1464
157.2120
157.2154
157.2630
157.2133
157.3862
157.1729
157.4016
157.3201
157.5226
157.2963
157.4880
157.2275
157.3924
157.2175
157.3197
157.1540
157.1866
157.1359
157.129
157.1105
157.1334
157.2462
157.993
157.2776
157.563
157.3204
157.1929
157.3794
157.1671
157.4193
157.1616
157.2811
157.1785
157.3179
157.2217
157.1937
157.2120
157.938
157.2351
157.1531
157.2373
157.727
157.2913
156.9880
157.1934
157.668
157.2858
157.568
157.2019
157.1
157.553
157.80
157.832
157.602
157.552
157.1938
157.267
157.2224
157.1838
157.3603
157.1561
157.3408
157.354
157.2473
157.533
157.1883
156.9863
157.1064
156.9701
156.9044
156.9454
157.79
157.623
156.9356
157.1095
156.9135
157.1654
157.428
157.1955
157.363
157.3143
157.613
157.2198
157.960
157.2631
157.1018
157.885
157.421
156.9392
157.454
156.9995
157.518
156.9046
157.1254
156.8606
157.815
156.9755
157.1978
156.9665
157.1419
156.9142
157.294
156.9393
157.225
156.9687
157.267
157.1121
156.9589
157.1249
157.1015
157.2551
157.1022
157.2733
156.9756
157.1974
157.53
157.1546
156.9234
157.494
156.8577
156.8349
156.8311
156.9108
156.9343
156.8513
156.9885
156.8092
157.532
156.9582
157.1188
156.9577
157.2146
156.9271
157.1183
156.9830
157.1781
156.9877
157.499
156.9339
156.8818
156.9533
156.9311
156.9789
156.8502
157.335
156.7581
156.9745
156.8733
157.937
156.8753
157.740
156.8653
157.64
156.8811
156.9790
156.8885
156.9492
156.9774
156.8529
157.70
156.9862
157.1303
156.9737
157.1652
156.9277
157.1474
156.9443
157.980
156.8911
157.769
156.8591
156.8465
156.7870
156.8745
156.8663
156.7870
156.8830
156.6994
156.9319
156.8284
156.9776
156.8457
157.1194
156.8761
157.747
156.9410
157.1401
156.9470
156.9755
156.8524
156.8018
156.8485
156.8255
156.8552
156.7426
156.9306
156.6513
156.8676
156.7791
157.46
156.7650
156.9673
156.7699
156.9333
156.8123
156.9124
156.7994
156.8619
156.9000
156.7682
156.9137
156.8864
157.259
156.8281
157.204
156.7925
157.254
156.8314
156.9877
156.7714
156.9418
156.7303
156.7277
156.6874
156.7879
156.7810
156.7180
156.8158
156.6349
156.8693
156.7647
156.9088
156.7621
157.653
156.7902
156.9849
156.8627
157.580
156.8640
156.9188
156.7910
156.7378
156.7988
156.7677
156.8046
156.6739
156.8832
156.6272
156.8370
156.7219
156.9367
156.6938
156.8832
156.6657
156.8064
156.6854
156.7951
156.7059
156.7882
156.8246
156.6795
156.8323
156.8184
156.9657
156.7662
156.9381
156.6580
156.8989
156.7067
156.8443
156.6327
156.7843
156.5897
156.5838
156.5803
156.6779
156.7002
156.6383
156.7681
156.6035
156.8444
156.7398
156.8978
156.7386
156.9957
156.7196
156.9075
156.7568
156.9445
156.7625
156.7733
156.6800
156.6041
156.7093
156.6791
156.7436
156.6160
156.8173
156.5538
156.7771
156.6802
156.9076
156.6798
156.8500
156.6083
156.7229
156.6255
156.7139
156.6563
156.6659
156.7776
156.6144
156.7931
156.7607
156.9322
156.7485
156.9309
156.6712
156.8931
156.6996
156.8455
156.6447
156.7516
156.5747
156.5368
156.5543
156.6189
156.6633
156.5684
156.7334
156.5273
156.7684
156.6427
156.7950
156.6407
156.8831
156.6022
156.7658
156.6552
156.8189
156.6718
156.6802
156.6487
156.5443
156.6713
156.6139
156.7015
156.5708
156.7869
156.5265
156.7352
156.6107
156.8322
156.5909
156.7304
156.5266
156.5865
156.5331
156.6077
156.5858
156.5573
156.6837
156.4854
156.7052
156.6651
156.8692
156.6621
156.8261
156.5945
156.8089
156.6178
156.7543
156.5785
156.6603
156.5580
156.4746
156.5432
156.5789
156.6652
156.5433
156.7159
156.4963
156.7534
156.6140
156.7874
156.6025
156.8686
156.5888
156.6950
156.6013
156.7409
156.6614
156.6101
156.6610
156.5357
156.7003
156.6107
156.7178
156.5675
156.8046
156.5052
156.7010
156.5670
156.7764
156.5648
156.6561
156.5040
156.5151
156.5381
156.5715
156.5942
156.5533
156.7386
156.5061
156.7328
156.6612
156.8820
156.6664
156.8600
156.6149
156.7691
156.5861
156.6741
156.5164
156.5329
156.5137
156.3664
156.4973
156.5183
156.6546
156.5310
156.7147
156.4798
156.7384
156.5777
156.7617
156.5637
156.7462
156.5562
156.6053
156.5497
156.6499
156.6341
156.5685
156.6468
156.4683
156.6702
156.5412
156.6706
156.5084
156.7443
156.4314
156.5947
156.4666
156.6614
156.4768
156.5563
156.4781
156.4286
156.5247
156.5225
156.5914
156.5025
156.7079
156.4643
156.7086
156.6106
156.8421
156.6274
156.7774
156.5332
156.6434
156.5036
156.5645
156.4782
156.4505
156.5144
156.3100
156.4854
156.4585
156.6344
156.4612
156.6902
156.4411
156.6838
156.5066
156.6741
156.4793
156.6369
156.4688
156.4586
156.5100
156.5748
156.6322
156.4910
156.6132
156.4128
156.6524
156.5181
156.6833
156.4931
156.6963
156.4149
156.5223
156.4089
156.5516
156.4317
156.4351
156.4471
156.3169
156.4978
156.4524
156.5542
156.4665
156.7494
156.4527
156.6870
156.5534
156.7794
156.5315
156.6353
156.4595
156.4966
156.4638
156.4744
156.4633
156.3807
156.5108
156.2981
156.5042
156.4473
156.6475
156.4434
156.6426
156.4079
156.5981
156.4537
156.5787
156.4350
156.4947
156.4696
156.3701
156.5057
156.5226
156.6398
156.4585
156.6323
156.3758
156.6282
156.4511
156.6124
156.3853
156.5654
156.3226
156.3455
156.2919
156.4063
156.3945
156.3264
156.4117
156.2440
156.4955
156.4143
156.5836
156.4645
156.7427
156.4438
156.6399
156.5254
156.7210
156.5198
156.5683
156.4699
156.4250
156.4975
156.4599
156.5087
156.4138
156.6074
156.3348
156.5475
156.4390
156.6596
156.4071
156.6065
156.3608
156.4638
156.3772
156.4680
156.4185
156.4393
156.5231
156.3558
156.5495
156.4797
156.6611
156.4685
156.6800
156.3949
156.6234
156.4250
156.5515
156.3707
156.5062
156.3812
156.3126
156.3601
156.3948
156.4667
156.3559
156.5122
156.3046
156.5675
156.4356
156.6222
156.4449
156.6962
156.4543
156.5704
156.4772
156.6193
156.5060
156.4678
156.4791
156.3351
156.5003
156.4252
156.5316
156.3534
156.6040
156.3035
156.5054
156.3800
156.5989
156.3573
156.4521
156.2573
156.2783
156.3254
156.3765
156.4142
156.3821
156.5576
156.3426
156.5787
156.4979
156.7090
156.4611
156.6400
156.4023
156.5789
156.4088
156.4641
156.3381
156.3430
156.3507
156.2155
156.3677
156.3675
156.5124
156.3375
156.5317
156.3066
156.5866
156.4289
156.6170
156.4293
156.6354
156.4367
156.4665
156.4555
156.5565
156.5635
156.4735
156.5825
156.4125
156.6169
156.4849
156.6179
156.4290
156.6507
156.3545
156.4954
156.3655
156.5346
156.3608
156.4087
156.3780
156.2912
156.4202
156.3896
156.4748
156.4078
156.6334
156.3517
156.5947
156.4691
156.6989
156.4741
156.6112
156.3664
156.4360
156.3452
156.3906
156.3389
156.3106
156.4302
156.2306
156.4251
156.3723
156.5609
156.3420
156.5571
156.3125
156.5428
156.3852
156.5343
156.3838
156.5097
156.4397
156.3989
156.4868
156.5088
156.5961
156.4336
156.5725
156.3488
156.5941
156.4247
156.5854
156.3708
156.5559
156.3008
156.3508
156.2708
156.3914
156.3354
156.3105
156.3654
156.2026
156.4221
156.3570
156.5020
156.3699
156.6614
156.3750
156.5807
156.4311
156.6232
156.4010
156.4281
156.3139
156.2971
156.3520
156.3264
156.3634
156.2579
156.4518
156.2012
156.4243
156.3106
156.5257
156.3094
156.4989
156.2474
156.3777
156.2739
156.3548
156.2960
156.3199
156.4173
156.2907
156.4690
156.4373
156.6067
156.4131
156.6133
156.3528
156.5747
156.3660
156.5092
156.2797
156.3972
156.2425
156.2047
156.2489
156.3007
156.3699
156.2352
156.3914
156.2015
156.4725
156.3485
156.5287
156.3727
156.6313
156.3677
156.4890
156.3958
156.5326
156.4214
156.3776
156.4038
156.2904
156.4448
156.3647
156.4648
156.3033
156.5328
156.2417
156.4446
156.3068
156.5184
156.2972
156.4197
156.2622
156.2695
156.2945
156.3202
156.3467
156.2795
156.4656
156.2495
156.4891
156.4073
156.6067
156.3579
156.5568
156.2787
156.4535
156.3025
156.3829
156.2475
156.2656
156.3030
156.1530
156.2931
156.2796
156.4037
156.2490
156.4804
156.2384
156.4993
156.3250
156.4771
156.3057
156.4941
156.3260
156.3448
156.3520
156.4210
156.4506
156.3490
156.4604
156.2613
156.4864
156.3451
156.4975
156.2934
156.4808
156.1921
156.3441
156.2321
156.4028
156.2599
156.2710
156.2673
156.2072
156.3684
156.3338
156.4408
156.3627
156.6071
156.3714
156.6049
156.4851
156.6934
156.4528
156.5638
156.3537
156.3744
156.3191
156.3412
156.3174
156.2390
156.3773
156.1613
156.3601
156.2962
156.4929
156.2640
156.4657
156.2075
156.4101
156.2726
156.4032
156.2713
156.3573
156.3437
156.2486
156.3706
156.3790
156.5039
156.3422
156.5241
156.2555
156.5004
156.3218
156.4866
156.2599
156.4232
156.2136
156.2240
156.1773
156.2816
156.2767
156.1591
156.2818
156.1046
156.3571
156.2715
156.4310
156.2902
156.5411
156.2520
156.4571
156.3215
156.5021
156.3343
156.3952
156.3204
156.2298
156.3348
156.2898
156.3541
156.2185
156.4208
156.1399
156.3759
156.2586
156.4768
156.2308
156.4262
156.2294
156.3105
156.2471
156.3009
156.2705
156.2538
156.4064
156.2342
156.4495
156.3924
156.5890
156.3679
156.5632
156.2887
156.4906
156.2966
156.4096
156.2170
156.3184
156.2530
156.1319
156.2259
156.2376
156.3492
156.1864
156.3739
156.1538
156.4298
156.2770
156.4709
156.2704
156.5102
156.2940
156.3632
156.2994
156.4201
156.3846
156.3139
156.4012
156.2463
156.4367
156.3150
156.4403
156.2581
156.4926
156.1981
156.3658
156.2333
156.4138
156.2068
156.2643
156.1956
156.1697
156.2711
156.2473
156.3183
156.2593
156.4788
156.2504
156.4916
156.3859
156.6016
156.3622
156.4843
156.2819
156.3633
156.2376
156.2842
156.2195
156.1730
156.2615
156.765
156.2560
156.2205
156.4009
156.1929
156.3867
156.1592
156.3918
156.2382
156.3842
156.2239
156.3358
156.2328
156.1853
156.2744
156.3125
156.4046
156.2851
156.4562
156.2148
156.4505
156.2758
156.4274
156.1992
156.4122
156.1659
156.2154
156.1305
156.2393
156.1823
156.1051
156.1953
156.718
156.2907
156.2107
156.3535
156.2236
156.5025
156.2371
156.4356
156.2981
156.4882
156.2990
156.3626
156.2321
156.1790
156.2358
156.2035
156.2472
156.1248
156.3407
156.784
156.2946
156.1882
156.4081
156.1764
156.3731
156.1441
156.2460
156.1303
156.2156
156.1731
156.1957
156.2863
156.1313
156.3305
156.3039
156.4861
156.2843
156.4999
156.2236
156.4342
156.2251
156.3482
156.1628
156.2285
156.1249
156.617
156.1315
156.1647
156.2559
156.1345
156.3142
156.1084
156.3695
156.2306
156.4021
156.2134
156.4484
156.2026
156.2830
156.2078
156.3321
156.2769
156.2039
156.2615
156.1079
156.3026
156.2077
156.3356
156.1635
156.4010
156.1000
156.2731
156.1414
156.3362
156.1343
156.2012
156.833
156.431
156.1506
156.1559
156.2320
156.1647
156.3633
156.1355
156.3841
156.2825
156.5092
156.2854
156.4703
156.2198
156.2918
156.1667
156.2123
156.1394
156.1041
156.1935
156.216
156.1990
156.1553
156.3301
156.1379
156.3644
156.1229
156.3359
156.1743
156.3038
156.1450
156.2479
156.1323
156.770
156.1710
156.2207
156.3204
156.1897
156.3475
156.1277
156.3701
156.1965
156.3470
156.1099
156.3251
156.827
156.1124
156.368
156.1512
156.1144
156.799
156.1553
155.9916
156.2173
156.1296
156.2799
156.1383
156.4050
156.1463
156.3432
156.2181
156.4005
156.1990
156.2164
156.1228
156.848
156.1654
156.1209
156.1799
156.596
156.2463
156.38
156.2292
156.1127
156.3329
156.1140
156.2858
156.731
156.1582
156.786
156.1324
156.1134
156.1066
156.2354
156.566
156.2670
156.2250
156.4203
156.1828
156.3768
156.1194
156.3241
156.1206
156.2349
156.526
156.1143
156.594
155.9546
156.610
156.807
156.1976
156.642
156.2692
156.476
156.3177
156.1544
156.3210
156.1397
156.3644
156.1495
156.2126
156.1533
156.2572
156.2420
156.1678
156.2612
156.679
156.2768
156.1434
156.2652
156.936
156.3206
156.205
156.1891
156.413
156.1997
156.399
156.710
156.612
155.9976
156.1328
156.1078
156.1995
156.1113
156.3523
156.1091
156.3435
156.2109
156.4272
156.1741
156.2934
156.773
156.1447
156.686
156.1128
156.857
156.357
156.1762
155.9575
156.1560
156.917
156.2875
156.753
156.3028
156.383
156.2363
156.985
156.2229
156.823
156.1383
156.1315
156.424
156.1769
156.1884
156.3137
156.1552
156.3575
156.1030
156.3376
156.1510
156.3047
156.727
156.2449
156.362
156.290
156.34
156.773
156.907
156.9
156.1479
155.9806
156.2215
156.1006
156.2571
156.1123
156.3879
156.1259
156.2704
156.1472
156.2947
156.1437
156.1375
156.1192
156.97
156.1432
156.598
156.1432
155.9907
156.2376
155.9455
156.1644
156.214
156.2369
155.9992
156.1216
155.9440
155.9827
156.29
156.344
156.573
156.395
156.2393
156.232
156.2566
156.1707
156.3902
156.1492
156.3556
156.715
156.2310
156.674
156.1507
156.199
156.350
156.487
155.8888
156.473
156.402
156.1989
156.221
156.2257
155.9758
156.2414
156.851
156.2675
156.846
156.2815
156.1157
156.1075
156.1295
156.1890
156.2327
156.1435
156.2698
156.529
156.2726
156.1160
156.2661
156.443
156.2503
155.9860
156.770
155.9702
156.1037
155.9990
155.9863
156.299
155.9116
156.1020
156.280
156.1548
156.617
156.3453
156.706
156.2746
156.1358
156.3332
156.855
156.1611
156.127
155.9910
156.199
155.9904
156.196
155.9112
156.911
155.8326
156.561
155.9601
156.1848
155.9549
156.1847
155.9334
156.596
155.9569
156.463
155.9950
156.41
156.912
155.9343
156.1316
156.989
156.2767
156.882
156.2903
156.101
156.2366
156.439
156.1861
155.9865
156.566
155.9227
155.8504
155.9394
155.9854
156.804
155.9427
156.1245
155.9306
156.1989
156.530
156.2288
156.484
156.2695
156.454
156.1000
156.303
156.1521
156.1160
156.160
156.1020
155.9476
156.1472
156.274
156.1618
155.9914
156.2398
155.9230
156.837
155.9315
156.1243
155.9440
156.148
155.9806
155.9206
156.408
156.19
156.763
155.9888
156.2295
155.9764
156.2178
156.914
156.3141
156.767
156.2231
156.146
156.648
155.9857
156.334
156.89
155.9241
156.688
155.8568
156.580
156.66
156.2093
156.83
156.2386
155.9531
156.1453
156.68
156.1336
156.47
156.989
156.953
155.9945
156.1199
156.1290
156.2587
156.838
156.2523
156.17
156.2382
156.467
156.2032
155.9716
156.1452
155.9334
155.9121
155.9057
155.9839
156.114
155.9150
156.614
155.8946
156.1482
156.257
156.1952
156.278
156.2976
156.36
156.1696
156.433
156.2086
156.751
156.452
156.353
155.9115
156.718
156.82
156.1066
155.9589
156.1923
155.8874
156.1006
155.9709
156.1968
155.9826
156.1044
155.9171
155.9314
155.9684
156.117
156.497
156.228
156.1978
155.9849
156.2183
156.1373
156.3588
156.1434
156.3098
156.301
156.1591
156.78
156.850
155.9698
155.9330
155.9866
155.8210
155.9866
155.9717
156.1421
155.9453
156.1725
155.9250
156.1734
155.9920
156.1598
155.9817
156.1331
155.9953
155.9660
156.290
156.718
156.1517
156.380
156.1886
155.9661
156.2073
156.340
156.1757
155.9527
156.1480
155.8753
155.9479
155.8643
155.9966
155.9472
155.8926
155.9909
155.8435
156.668
156.40
156.1540
156.365
156.3193
156.117
156.2169
156.922
156.2862
156.832
156.1165
155.9963
155.9544
156.295
155.9994
156.558
155.9609
156.1859
155.9239
156.1313
156.90
156.2147
155.9489
156.1014
155.9116
155.9987
155.9210
155.9838
155.9632
155.9537
156.866
155.8997
156.1111
156.533
156.2574
156.478
156.2383
155.9642
156.1640
155.9710
156.865
155.9095
155.9666
155.9163
155.7964
155.9144
155.9367
156.657
155.9194
156.1169
155.8849
156.1611
156.143
156.1970
156.218
156.2374
156.327
156.580
156.220
156.1214
156.1195
156.209
156.1335
155.9458
156.1590
156.235
156.1677
155.9742
156.1944
155.9271
156.612
155.9364
156.848
155.9342
155.9401
155.9208
155.8284
156.65
155.9527
156.702
155.9757
156.2484
155.9695
156.2102
156.698
156.2897
156.503
156.1542
155.9584
155.9698
155.9648
155.9731
155.9793
155.9187
156.926
155.8642
156.729
155.9897
156.2062
155.9695
156.2057
155.9498
156.1082
155.9876
156.856
155.9790
156.447
156.1015
155.9621
156.1295
156.1209
156.2752
156.934
156.2642
155.9969
156.2291
156.454
156.1960
155.9794
156.1167
155.9735
155.9270
155.9585
156.84
156.713
155.9400
156.1080
155.9235
156.1890
156.414
156.2190
156.538
156.2935
156.562
156.1717
156.656
156.1915
156.1074
156.510
156.746
155.9182
156.1035
156.68
156.1146
155.9627
156.2227
155.9063
156.1058
155.9598
156.1587
155.9686
156.594
155.9524
155.9248
156.151
156.179
156.805
156.0
156.2063
155.9820
156.2321
156.1360
156.3618
156.1289
156.2748
156.353
156.1433
156.263
156.878
156.110
155.9794
156.696
155.8830
156.682
156.357
156.2195
156.437
156.2403
155.9771
156.2113
156.632
156.2125
156.541
156.1567
156.619
156.171
156.1172
156.1557
156.2560
156.1000
156.2696
156.616
156.3026
156.1175
156.2684
156.384
156.2420
156.162
156.461
155.9668
156.685
156.367
155.9532
156.786
155.9501
156.1766
156.625
156.2068
156.657
156.3482
156.540
156.2512
156.1082
156.3010
156.940
156.1054
156.300
155.9653
156.735
156.294
156.909
155.9598
156.1727
155.9004
156.1288
156.132
156.2409
155.9977
156.1588
155.9405
156.157
155.9747
156.539
156.539
156.470
156.1896
156.191
156.2370
156.1775
156.3805
156.1706
156.3551
156.884
156.2814
156.992
156.2097
156.456
156.648
156.239
155.8986
156.240
156.422
156.1716
156.406
156.2487
156.24
156.2670
156.1109
156.2815
156.1029
156.2795
156.706
156.881
156.768
156.1817
156.1916
156.830
156.2012
156.120
156.2317
156.955
156.2448
156.382
156.2629
155.9754
156.1035
155.9895
156.1504
156.41
156.72
155.9954
155.9183
156.907
156.436
156.1623
156.788
156.3367
156.973
156.3283
156.1827
156.4049
156.1666
156.2832
156.758
156.889
156.609
156.619
156.524
155.9651
156.1351
155.8822
156.1032
156.262
156.2393
156.343
156.2554
156.16
156.1898
156.524
156.1477
156.448
156.720
156.1230
156.219
156.1858
156.1776
156.3221
156.1365
156.3244
156.720
156.3156
156.1297
156.2964
156.724
156.2290
156.184
155.9774
156.34
156.766
156.1286
156.754
156.2213
156.290
156.2832
156.1582
156.3275
156.1548
156.4002
156.1418
156.2742
156.1656
156.3101
156.1900
156.1523
156.1316
156.53
156.1729
156.1083
156.2221
156.755
156.3259
156.519
156.2507
156.1150
156.3176
156.953
156.1947
156.464
156.518
156.922
156.1097
156.1502
156.1120
156.2891
156.579
156.2913
156.2268
156.4516
156.2174
156.3961
156.1439
156.2804
156.1221
156.1961
156.914
156.440
156.1096
155.9645
156.1288
156.1168
156.2800
156.871
156.3204
156.797
156.3310
156.1703
156.3379
156.1681
156.3262
156.1641
156.1489
156.1950
156.2536
156.3215
156.2124
156.3348
156.1393
156.3742
156.2145
156.3722
156.1514
156.3871
156.1124
156.1916
156.863
156.2284
156.1363
156.1020
156.1431
156.239
156.2279
156.1671
156.3006
156.1999
156.4805
156.2175
156.4351
156.3095
156.5114
156.2672
156.3390
156.2062
156.1981
156.2130
156.1885
156.2153
156.1053
156.3071
156.482
156.2582
156.1696
156.3819
156.1538
156.3202
156.1238
156.2717
156.1417
156.2266
156.1503
156.2012
156.2523
156.1343
156.3058
156.2844
156.4461
156.2582
156.4393
156.1899
156.4147
156.2102
156.3562
156.1245
156.2161
156.522
156.60
156.632
156.1269
156.1991
156.1028
156.2702
156.802
156.3439
156.2107
156.3948
156.2463
156.4953
156.2359
156.3434
156.2499
156.3865
156.2873
156.2210
156.2268
156.1019
156.2795
156.1958
156.3069
156.1510
156.4011
156.1126
156.3081
156.1699
156.3735
156.1481
156.2442
156.1047
156.1108
156.1699
156.1758
156.2278
156.1601
156.3704
156.1677
156.4056
156.3180
156.5314
156.3009
156.4600
156.1908
156.3165
156.1706
156.2379
156.1419
156.1183
156.1983
156.324
156.1974
156.1684
156.3366
156.1536
156.3848
156.1341
156.3757
156.1948
156.3610
156.1766
156.3593
156.2315
156.2174
156.2568
156.3022
156.3595
156.2430
156.3698
156.1554
156.3882
156.2205
156.3809
156.1704
156.3926
156.1183
156.1984
156.928
156.2299
156.1440
156.835
156.1475
156.311
156.2372
156.1638
156.2981
156.1805
156.4440
156.1936
156.4170
156.2882
156.4904
156.2800
156.3322
156.1727
156.1530
156.1812
156.1628
156.1945
156.634
156.2371
156.117
156.2381
156.1493
156.3687
156.1511
156.3731
156.1322
156.2592
156.1394
156.2216
156.1494
156.1791
156.2713
156.1330
156.3093
156.2786
156.4448
156.2572
156.4666
156.2202
156.4361
156.2147
156.3475
156.1471
156.2417
156.769
156.104
156.672
156.1152
156.1970
156.1028
156.2733
156.799
156.3453
156.1940
156.3728
156.1928
156.4482
156.2025
156.3252
156.2282
156.3637
156.2762
156.2336
156.2648
156.1365
156.3054
156.2010
156.3120
156.1425
156.3580
156.623
156.2705
156.1267
156.3459
156.1241
156.2313
156.870
156.726
156.1473
156.1620
156.2220
156.1885
156.4029
156.1888
156.4207
156.3223
156.5405
156.3157
156.4723
156.2265
156.3400
156.1875
156.2425
156.1511
156.1378
156.1943
155.9994
156.1715
156.1502
156.3230
156.1458
156.3517
156.1197
156.3715
156.1874
156.3481
156.1631
156.3497
156.2167
156.2053
156.2567
156.2972
156.3675
156.2294
156.3814
156.1750
156.4086
156.2374
156.3894
156.1920
156.4379
156.1372
156.2144
156.1046
156.2343
156.1572
156.1166
156.1733
156.610
156.2651
156.1914
156.3276
156.1868
156.4743
156.1954
156.4170
156.2919
156.5045
156.2736
156.3430
156.1857
156.1770
156.2119
156.1948
156.2298
156.1315
156.3277
156.804
156.2996
156.1988
156.4163
156.1914
156.3643
156.1253
156.2614
156.1485
156.2511
156.1861
156.2087
156.2626
156.1152
156.3061
156.3017
156.4808
156.3293
156.5260
156.2559
156.4746
156.2681
156.4075
156.1916
156.2667
156.1116
156.585
156.1114
156.1820
156.2600
156.1429
156.2977
156.934
156.3651
156.2334
156.4185
156.2496
156.4892
156.2693
156.3900
156.2872
156.4271
156.3295
156.2542
156.2819
156.1769
156.3456
156.2559
156.3640
156.2093
156.4341
156.1314
156.3300
156.2068
156.4174
156.1928
156.3007
156.1574
156.1606
156.2111
156.2328
156.2803
156.2262
156.4371
156.2104
156.4387
156.3608
156.5799
156.3526
156.5352
156.2662
156.3909
156.2377
156.3215
156.2059
156.2392
156.2630
156.998
156.2534
156.2324
156.3916
156.1976
156.4067
156.1546
156.4102
156.2576
156.4270
156.2446
156.3915
156.2539
156.2677
156.2929
156.3576
156.4090
156.2985
156.4308
156.1955
156.4238
156.2719
156.4333
156.2150
156.4601
156.2064
156.3102
156.1969
156.3342
156.2185
156.1892
156.2237
156.1167
156.3009
156.2517
156.3709
156.2800
156.5489
156.2894
156.5112
156.3630
156.5677
156.3355
156.4453
156.2422
156.2373
156.2289
156.2385
156.2461
156.1828
156.3294
156.729
156.2819
156.2050
156.4209
156.1942
156.3920
156.1271
156.3018
156.1849
156.2949
156.1729
156.2286
156.2973
156.1843
156.3394
156.3244
156.4649
156.2696
156.4714
156.2178
156.4608
156.2630
156.4156
156.2007
156.3510
156.1552
156.1240
156.1354
156.2051
156.2405
156.1246
156.3045
156.1239
156.3806
156.2565
156.4180
156.2629
156.5555
156.2776
156.4266
156.2962
156.4176
156.2888
156.2626
156.2569
156.1551
156.3022
156.2332
156.3226
156.1528
156.4082
156.1064
156.3212
156.1788
156.3664
156.1482
156.2831
156.1488
156.1840
156.2035
156.2173
156.2356
156.1882
156.3722
156.1426
156.3840
156.3171
156.5386
156.3311
156.5259
156.2532
156.4193
156.2505
156.2973
156.1810
156.2149
156.2099
156.505
156.1928
156.1873
156.3323
156.1569
156.3880
156.1322
156.3976
156.2218
156.3832
156.2104
156.4124
156.2612
156.2823
156.2876
156.3450
156.3754
156.2536
156.3799
156.1771
156.4094
156.2541
156.3873
156.1837
156.4073
156.1060
156.2450
156.1220
156.2790
156.1443
156.1638
156.1684
156.892
156.2626
156.2031
156.3097
156.2006
156.4665
156.1847
156.4347
156.3038
156.5277
156.2941
156.4324
156.2414
156.2586
156.2298
156.2229
156.2084
156.1343
156.2966
156.670
156.2745
156.1849
156.3940
156.1828
156.4169
156.1663
156.3415
156.1931
156.2898
156.1697
156.2231
156.2461
156.1184
156.2765
156.2778
156.4239
156.2571
156.4138
156.1799
156.4342
156.2320
156.3831
156.1708
156.3308
156.1160
156.914
156.941
156.1611
156.1968
156.852
156.2382
156.698
156.3306
156.2057
156.3763
156.2095
156.4732
156.2153
156.3841
156.2659
156.4237
156.2887
156.2765
156.2462
156.1462
156.2893
156.2145
156.2996
156.1474
156.3970
156.1296
156.3430
156.2026
156.4202
156.1855
156.3110
156.1553
156.1960
156.1961
156.2194
156.2416
156.2321
156.3968
156.2075
156.4267
156.3532
156.5570
156.3301
156.5134
156.2619
156.4248
156.2449
156.3305
156.1891
156.2020
156.2106
156.809
156.2085
156.2032
156.3397
156.1737
156.3782
156.1562
156.4182
156.2439
156.4172
156.2223
156.4519
156.2963
156.3240
156.2968
156.3558
156.3642
156.2309
156.3379
156.1578
156.3787
156.2424
156.3873
156.1736
156.4124
156.1793
156.3175
156.1851
156.3343
156.1850
156.1770
156.1587
156.936
156.2538
156.2214
156.3283
156.2332
156.4848
156.2343
156.4738
156.3596
156.5811
156.3465
156.4661
156.2797
156.3102
156.2544
156.2779
156.2578
156.1728
156.3161
156.897
156.2920
156.2378
156.4430
156.2198
156.4458
156.2111
156.4066
156.2619
156.3811
156.2465
156.2961
156.2817
156.2032
156.3338
156.3543
156.4806
156.3341
156.5065
156.2800
156.5202
156.3286
156.4847
156.2598
156.4450
156.2142
156.2120
156.1687
156.2666
156.2675
156.1888
156.2959
156.1022
156.3516
156.2700
156.4391
156.3045
156.5624
156.2967
156.4925
156.3477
156.5200
156.3470
156.3697
156.3176
156.2334
156.3384
156.2885
156.3521
156.2427
156.4354
156.1567
156.3786
156.2578
156.4500
156.2400
156.4177
156.2067
156.2861
156.2252
156.2876
156.2603
156.2450
156.4046
156.2308
156.4465
156.3920
156.5930
156.3859
156.5558
156.2835
156.4861
156.2907
156.4052
156.2292
156.3084
156.2450
156.1358
156.2335
156.2482
156.3650
156.2073
156.3979
156.1915
156.4663
156.3033
156.4856
156.3055
156.5089
156.3023
156.3691
156.3014
156.4161
156.3821
156.3265
156.4027
156.2631
156.4510
156.3179
156.4411
156.2354
156.4805
156.1767
156.3428
156.2102
156.3968
156.1979
156.2511
156.1796
156.1515
156.2611
156.2465
156.3276
156.2442
156.4739
156.2504
156.4921
156.3898
156.6118
156.3798
156.5081
156.2987
156.3798
156.2651
156.3130
156.2478
156.1811
156.2741
156.1026
156.2834
156.2429
156.4234
156.2145
156.4265
156.1991
156.4357
156.2774
156.4225
156.2593
156.3499
156.2684
156.2229
156.3105
156.3556
156.4522
156.3478
156.5002
156.2589
156.4911
156.3247
156.4853
156.2703
156.5020
156.2390
156.2918
156.2018
156.3234
156.2606
156.2090
156.2700
156.1060
156.3273
156.2709
156.4139
156.2818
156.5631
156.2809
156.4998
156.3170
156.5225
156.3229
156.4004
156.2544
156.2263
156.2882
156.2892
156.3098
156.2003
156.4199
156.1498
156.3837
156.2913
156.5195
156.3006
156.4907
156.2445
156.3865
156.2769
156.3772
156.3187
156.3760
156.4757
156.3210
156.4946
156.4650
156.6295
156.4353
156.6249
156.3654
156.5808
156.3834
156.5294
156.3042
156.4123
156.2723
156.2257
156.2643
156.3212
156.3842
156.2539
156.4345
156.2493
156.5089
156.3824
156.5517
156.3790
156.6371
156.3912
156.5043
156.4006
156.5422
156.4224
156.3820
156.3977
156.2811
156.4356
156.3667
156.4631
156.2971
156.5422
156.2218
156.4240
156.3002
156.5267
156.2914
156.4433
156.2638
156.2734
156.2945
156.3228
156.3522
156.3359
156.5177
156.2816
156.5057
156.4143
156.6244
156.4079
156.6149
156.3167
156.4773
156.3090
156.3655
156.2453
156.2415
156.2565
156.1132
156.2681
156.2815
156.4369
156.2745
156.4922
156.2746
156.5412
156.3738
156.5551
156.3668
156.5406
156.3661
156.3976
156.3892
156.4750
156.4938
156.3660
156.4998
156.3307
156.5485
156.4010
156.5397
156.3502
156.5856
156.3036
156.4279
156.3027
156.4585
156.3136
156.3475
156.3174
156.2259
156.3685
156.3381
156.4394
156.3580
156.5805
156.3533
156.5880
156.4650
156.6871
156.4374
156.5600
156.3340
156.3712
156.3026
156.3514
156.3235
156.2405
156.3861
156.1716
156.3665
156.3115
156.5028
156.3032
156.5160
156.2234
156.4484
156.2920
156.4271
156.2832
156.3976
156.3647
156.2712
156.3921
156.4197
156.5402
156.3830
156.5812
156.3394
156.5887
156.3916
156.5540
156.3288
156.5207
156.2441
156.2795
156.2268
156.3487
156.3295
156.2738
156.3917
156.2480
156.4713
156.3841
156.5398
156.4167
156.6809
156.4237
156.6107
156.4802
156.6627
156.4665
156.4870
156.3749
156.3332
156.3972
156.3664
156.4195
156.3060
156.4937
156.2171
156.4332
156.3355
156.5660
156.3350
156.4991
156.2542
156.3681
156.2824
156.3814
156.3354
156.3651
156.4813
156.3087
156.4878
156.4439
156.6206
156.4157
156.5871
156.3268
156.5554
156.3538
156.4878
156.3034
156.4128
156.2490
156.1703
156.2459
156.3006
156.3847
156.2592
156.4501
156.2290
156.5005
156.3700
156.5706
156.4159
156.6901
156.4441
156.5487
156.4531
156.5954
156.4979
156.4694
156.4999
156.3615
156.5163
156.4270
156.5325
156.3663
156.5896
156.2976
156.4949
156.3654
156.5768
156.3560
156.4606
156.2951
156.3054
156.3395
156.3813
156.4223
156.3942
156.5921
156.3688
156.5903
156.5039
156.7156
156.4815
156.6664
156.3859
156.5437
156.3753
156.4452
156.3107
156.2943
156.3127
156.1624
156.3168
156.3173
156.4722
156.3144
156.5291
156.3223
156.5903
156.4076
156.5894
156.3979
156.5921
156.4102
156.4338
156.4340
156.5184
156.5445
156.4390
156.5338
156.3720
156.5910
156.4588
156.6054
156.4033
156.6364
156.3633
156.4998
156.3698
156.5430
156.3972
156.4154
156.4037
156.3203
156.4539
156.4257
156.5248
156.4337
156.6645
156.3902
156.6311
156.5055
156.7274
156.4862
156.6267
156.3977
156.4518
156.3684
156.4263
156.3787
156.3265
156.4648
156.2605
156.4568
156.3994
156.6025
156.4209
156.6625
156.3961
156.6089
156.4359
156.5821
156.4341
156.5678
156.4953
156.4460
156.5336
156.5570
156.6455
156.5010
156.6560
156.4266
156.6603
156.4860
156.6481
156.4100
156.6128
156.3261
156.3959
156.3182
156.4545
156.3999
156.3502
156.4020
156.2730
156.4938
156.4303
156.5655
156.4266
156.6911
156.4322
156.6694
156.5295
156.7545
156.5466
156.6074
156.4741
156.4652
156.5040
156.4951
156.5260
156.4212
156.5929
156.3513
156.5714
156.4983
156.7166
156.4835
156.6746
156.4309
156.5874
156.4789
156.5908
156.4878
156.5309
156.5766
156.4477
156.6033
156.5882
156.7286
156.5461
156.7442
156.4859
156.7216
156.5220
156.6569
156.4389
156.5666
156.3800
156.3667
156.3669
156.4526
156.4878
156.4190
156.5521
156.3865
156.6333
156.5261
156.6927
156.5381
156.7747
156.5339
156.7034
156.5789
156.7465
156.5857
156.5788
156.5490
156.4664
156.5659
156.5072
156.5806
156.4296
156.6547
156.3680
156.5790
156.4521
156.6588
156.4229
156.5966
156.3818
156.4661
156.4103
156.4813
156.4636
156.4853
156.6156
156.4584
156.6613
156.6138
156.8024
156.6119
156.8056
156.5441
156.7493
156.5562
156.6739
156.4824
156.5532
156.4609
156.3742
156.4437
156.4854
156.5730
156.4374
156.6252
156.4020
156.6666
156.5264
156.6957
156.5111
156.7601
156.5024
156.6198
156.5268
156.6725
156.5957
156.5489
156.5966
156.4766
156.6468
156.5561
156.6644
156.4979
156.7589
156.4819
156.6721
156.5371
156.7472
156.5190
156.6239
156.4487
156.4596
156.4944
156.5380
156.5770
156.5383
156.7342
156.5174
156.7419
156.6573
156.8748
156.6502
156.8263
156.5831
156.7504
156.5746
156.6681
156.5180
156.5188
156.5291
156.4067
156.5360
156.5491
156.6789
156.5343
156.7341
156.5111
156.7765
156.6180
156.7977
156.5824
156.7983
156.5712
156.6154
156.5689
156.6822
156.6767
156.5727
156.6786
156.5310
156.7384
156.6097
156.7438
156.5764
156.8266
156.5350
156.7005
156.5750
156.7635
156.5804
156.6482
156.5202
156.4675
156.5699
156.5825
156.6515
156.5932
156.8047
156.5389
156.7797
156.6751
156.9066
156.6774
156.8550
156.6113
156.7322
156.5826
156.6482
156.5496
156.5376
156.5996
156.4483
156.6047
156.5855
156.7441
156.5820
156.7805
156.5387
156.7955
156.6304
156.8011
156.6114
156.7868
156.6302
156.6304
156.6403
156.7012
156.7313
156.6237
156.7256
156.5217
156.7571
156.6160
156.7783
156.5655
156.8036
156.5166
156.6617
156.5508
156.7262
156.5778
156.6116
156.6099
156.5387
156.6713
156.6338
156.7293
156.6469
156.9034
156.6185
156.8437
156.7077
156.9308
156.6897
156.8504
156.6193
156.6877
156.5836
156.6210
156.5686
156.5439
156.6212
156.4113
156.5957
156.5720
156.7636
156.5669
156.7824
156.5364
156.7708
156.6058
156.7660
156.6180
156.7559
156.6283
156.5705
156.6313
156.6628
156.7397
156.6012
156.7525
156.5383
156.7750
156.6077
156.7774
156.5674
156.7802
156.5004
156.5810
156.4893
156.6441
156.5449
156.5151
156.5481
156.4357
156.6247
156.5839
156.7152
156.6027
156.8587
156.5833
156.8129
156.6719
156.8970
156.6690
156.7748
156.5967
156.6254
156.5955
156.5985
156.5956
156.4918
156.6527
156.4469
156.6552
156.5951
156.8010
156.5798
156.7825
156.5493
156.7524
156.6113
156.7453
156.6050
156.7045
156.6621
156.5536
156.6769
156.6849
156.8000
156.6364
156.7982
156.5813
156.8291
156.6402
156.8055
156.5846
156.7824
156.5411
156.5917
156.5164
156.6324
156.5927
156.5620
156.6548
156.4977
156.7077
156.6268
156.7661
156.6299
156.8965
156.5931
156.8100
156.6589
156.8774
156.6661
156.7493
156.6040
156.5841
156.6173
156.5973
156.6287
156.5273
156.7168
156.4804
156.6908
156.6101
156.8271
156.6171
156.8057
156.5572
156.7121
156.5918
156.7013
156.5922
156.6900
156.7184
156.5779
156.7234
156.7005
156.8480
156.6686
156.8260
156.6173
156.8559
156.6523
156.8128
156.5881
156.7631
156.5587
156.5485
156.5205
156.6135
156.6163
156.5486
156.6523
156.4847
156.7215
156.6233
156.7783
156.6482
156.9124
156.6322
156.8157
156.6625
156.8543
156.6717
156.7163
156.6164
156.5522
156.6351
156.5909
156.6527
156.5243
156.7230
156.4785
156.6988
156.5997
156.8179
156.6047
156.8062
156.5631
156.6682
156.5696
156.6510
156.5971
156.6007
156.6898
156.5206
156.7078
156.6765
156.8497
156.6648
156.8609
156.6139
156.8411
156.6395
156.7854
156.5670
156.6873
156.5438
156.5052
156.5357
156.6029
156.6526
156.5693
156.7264
156.5153
156.7651
156.6410
156.8040
156.6354
156.9059
156.6024
156.7536
156.6381
156.8048
156.6589
156.6535
156.6075
156.5129
156.6488
156.5904
156.6844
156.5252
156.7530
156.4662
156.6806
156.5387
156.7713
156.5528
156.7290
156.5269
156.5830
156.5394
156.6160
156.6051
156.5628
156.7218
156.5359
156.7436
156.6861
156.8885
156.6864
156.8699
156.6000
156.8008
156.6034
156.7356
156.5457
156.6219
156.5336
156.4478
156.5234
156.5620
156.6599
156.5270
156.7061
156.4741
156.7331
156.6003
156.7884
156.6065
156.8234
156.5666
156.6668
156.5791
156.7174
156.6453
156.5981
156.6421
156.4996
156.6730
156.5805
156.7028
156.5654
156.8215
156.5247
156.7126
156.5785
156.7859
156.5530
156.6755
156.5109
156.5188
156.5525
156.5802
156.6163
156.5701
156.7651
156.5372
156.7623
156.6697
156.8870
156.6607
156.8424
156.5712
156.7301
156.5590
156.6606
156.5159
156.4999
156.5012
156.3806
156.5233
156.5493
156.6875
156.5645
156.7777
156.5474
156.8080
156.6503
156.8225
156.6301
156.8027
156.5863
156.6300
156.5832
156.6911
156.6770
156.6146
156.6997
156.5308
156.7301
156.6020
156.7304
156.5465
156.7665
156.4761
156.6549
156.5321
156.7284
156.5586
156.6136
156.5105
156.4918
156.5894
156.5790
156.6532
156.5759
156.8075
156.5584
156.7907
156.6883
156.9207
156.6943
156.8445
156.5954
156.7170
156.5785
156.6484
156.5598
156.5394
156.5942
156.4160
156.5801
156.5697
156.7391
156.5679
156.7665
156.5352
156.7881
156.5872
156.7673
156.5868
156.7590
156.5788
156.5818
156.6090
156.6915
156.7321
156.5953
156.7123
156.5166
156.7634
156.6338
156.7982
156.6147
156.8643
156.5741
156.7058
156.5863
156.7594
156.6090
156.6442
156.5863
156.5024
156.6459
156.6329
156.7341
156.6433
156.8805
156.6277
156.8650
156.7337
156.9582
156.7286
156.8753
156.6584
156.7066
156.6062
156.6567
156.6058
156.5411
156.6424
156.4394
156.6253
156.6030
156.7961
156.6009
156.8216
156.5572
156.7901
156.6336
156.8002
156.6321
156.7796
156.6562
156.6057
156.6735
156.7180
156.7993
156.6531
156.8005
156.5924
156.8256
156.6689
156.8351
156.6267
156.8372
156.5832
156.6745
156.5715
156.7197
156.6038
156.6058
156.6095
156.4930
156.6722
156.6277
156.7414
156.6129
156.8623
156.5818
156.8280
156.6988
156.9374
156.7173
156.8506
156.6685
156.6952
156.6500
156.6574
156.6414
156.5549
156.6870
156.4514
156.6541
156.6076
156.8179
156.6217
156.8382
156.5697
156.7644
156.6066
156.7284
156.5868
156.6613
156.6301
156.5512
156.6661
156.6994
156.8144
156.6623
156.8080
156.5895
156.8399
156.6770
156.8436
156.6286
156.8287
156.5840
156.6334
156.5508
156.6837
156.6268
156.5681
156.6268
156.4810
156.6941
156.6287
156.7619
156.6554
156.9155
156.6520
156.8761
156.7491
156.9636
156.7358
156.8168
156.6561
156.6490
156.6637
156.6731
156.6909
156.6058
156.7677
156.5102
156.7226
156.6410
156.8509
156.6257
156.8482
156.5632
156.7377
156.6008
156.7120
156.6100
156.6604
156.6730
156.5800
156.7232
156.7488
156.8881
156.7352
156.9311
156.6693
156.9018
156.7153
156.8785
156.6433
156.8303
156.6173
156.6211
156.5569
156.6593
156.6407
156.5714
156.6723
156.5331
156.7683
156.6738
156.8363
156.6876
156.9474
156.6979
156.9046
156.7786
156.9877
156.7855
156.7943
156.6554
156.6090
156.6768
156.6770
156.7134
156.6307
156.8329
156.5682
156.7839
156.6947
156.9184
156.7126
156.9105
156.6918
156.8326
156.7062
156.8127
156.7119
156.7689
156.8164
156.6637
156.8195
156.8064
156.9513
156.7803
156.9798
156.7111
156.9454
156.7375
156.8992
156.6709
156.8187
156.6317
156.6448
156.6162
156.7131
156.7261
156.6618
156.7822
156.6032
156.8413
156.7391
156.8955
156.7561
157.329
156.7252
156.9205
156.7905
156.9849
156.7917
156.8514
156.7744
156.7308
156.7968
156.7612
156.8045
156.7023
156.8947
156.6137
156.8243
156.7180
156.9324
156.6978
156.9022
156.6403
156.7817
156.6739
156.7784
156.7093
156.7889
156.8618
156.7544
156.9117
156.8928
157.406
156.8609
157.329
156.7454
156.9805
156.7885
156.9361
156.7185
156.8901
156.6752
156.6523
156.6590
156.7584
156.7803
156.7336
156.8772
156.7142
156.9437
156.8394
156.9942
156.8662
157.1356
156.8302
157.67
156.8629
157.536
156.8668
156.9075
156.8251
156.7914
156.8574
156.8104
156.8586
156.7396
156.9462
156.6965
156.9109
156.7994
157.154
156.7840
156.9597
156.7236
156.8608
156.7469
156.8552
156.7902
156.8393
156.8903
156.7703
156.9396
156.9353
157.939
156.9176
157.1226
156.8355
157.619
156.8552
156.9922
156.7630
156.8977
156.6869
156.6857
156.6874
156.7936
156.8189
156.7490
156.8650
156.6915
156.9340
156.8464
157.80
156.8555
157.1256
156.8176
157.139
156.8825
157.826
156.9015
156.9580
156.8791
156.8276
156.8889
156.8551
156.9023
156.7794
156.9674
156.6960
156.9082
156.8000
157.139
156.7942
156.9909
156.7686
156.9039
156.7800
156.8787
156.8009
156.8374
156.8996
156.7662
156.9270
156.9219
157.743
156.8596
157.566
156.7946
157.363
156.8337
156.9864
156.7667
156.9266
156.7466
156.7460
156.7308
156.8292
156.8331
156.7653
156.8887
156.7077
156.9424
156.8438
156.9918
156.8483
157.1056
156.8048
157.108
156.8965
157.1006
156.9124
156.9738
156.8509
156.7936
156.8633
156.8506
156.9027
156.7880
157.5
156.7132
156.9275
156.8301
157.646
156.8259
157.337
156.8063
156.9597
156.8482
156.9620
156.8636
156.9290
156.9565
156.8150
156.9722
156.9649
157.1111
156.9665
157.1416
156.8839
157.1166
156.9312
157.915
156.8610
156.9843
156.7794
156.7958
156.7633
156.8785
156.8718
156.7693
156.9096
156.7567
156.9919
156.8990
157.561
156.9218
157.2004
156.9408
157.1453
157.45
157.2109
156.9945
157.131
156.8704
156.8303
156.8852
156.8769
156.9106
156.8253
157.140
156.7858
156.9973
156.9176
157.1349
156.9111
157.1259
156.8467
157.144
156.8803
156.9698
156.8829
156.9473
156.9518
156.8695
157.122
157.348
157.1655
156.9907
157.1681
156.9104
157.1493
156.9646
157.1156
156.8877
157.933
156.8715
156.9056
156.8414
156.9687
156.9317
156.8876
156.9507
156.8024
157.195
156.9534
157.921
156.9531
157.2320
156.9721
157.1917
157.626
157.2685
157.563
157.1464
156.9780
156.9755
156.9681
156.9756
156.9782
156.8615
157.119
156.7530
156.9676
156.9017
157.1200
156.9049
157.1333
156.8859
157.906
156.9427
157.861
156.9246
157.457
156.9947
156.8895
157.66
157.360
157.1491
157.273
157.1797
156.9470
157.1903
157.229
157.1882
156.9801
157.1944
156.9184
156.9828
156.8788
157.119
156.9338
156.8982
156.9428
156.8452
157.352
156.9942
157.1138
156.9968
157.2499
156.9822
157.2151
157.724
157.3063
157.595
157.1856
157.12
157.419
156.9801
157.156
156.9916
156.9329
157.705
156.8263
157.155
156.9618
157.1606
156.9509
157.1732
156.9239
157.1568
157.79
157.1710
157.32
157.1160
157.423
156.9984
157.604
157.1055
157.1817
157.659
157.2036
157.44
157.2325
157.803
157.2343
157.323
157.2673
156.9729
157.899
156.9598
157.1145
156.9724
156.9824
156.9681
156.8895
157.449
157.214
157.1210
157.423
157.2917
157.269
157.2580
157.1417
157.3758
157.1491
157.2838
157.772
157.1580
157.394
157.1082
157.298
157.158
157.1085
156.9161
157.732
157.391
157.1996
156.9973
157.2153
156.9800
157.2299
157.664
157.2414
157.486
157.2369
157.505
157.639
157.619
157.1565
157.1767
157.1014
157.1857
156.9860
157.2022
157.871
157.2181
157.249
157.2867
156.9733
157.1454
157.206
157.2192
157.351
157.943
156.9958
156.9725
157.616
157.644
157.1129
157.542
157.2613
157.612
157.2957
157.2295
157.4513
157.2251
157.4246
157.1357
157.2824
157.1109
157.1743
157.441
157.404
157.396
156.9268
157.540
157.792
157.2041
157.636
157.2693
157.256
157.2889
157.1261
157.3153
157.1466
157.3932
157.1417
157.2414
157.1582
157.2804
157.2191
157.1799
157.2366
157.863
157.2545
157.1598
157.2648
157.970
157.3395
157.539
157.2581
157.1174
157.3258
157.966
157.2383
157.617
157.1121
157.923
157.1567
157.1624
157.1460
157.2873
157.836
157.2932
157.2450
157.4467
157.2533
157.4171
157.1599
157.3768
157.1903
157.3392
157.1226
157.2268
157.1198
157.551
157.984
157.1522
157.2132
157.1080
157.2533
157.573
157.3157
157.1933
157.3528
157.2110
157.4944
157.2159
157.3705
157.2600
157.4487
157.2711
157.2858
157.2172
157.1267
157.2225
157.1774
157.2461
157.1152
157.3159
157.809
157.3038
157.2044
157.4213
157.1557
157.3508
157.1144
157.2732
157.1625
157.2710
157.1805
157.2460
157.2796
157.1469
157.3002
157.2907
157.4346
157.2361
157.4197
157.1876
157.4398
157.2318
157.3981
157.1609
157.3713
157.1233
157.1596
157.1097
157.2405
157.2115
157.1488
157.2261
157.921
157.3088
157.2417
157.3652
157.2564
157.5182
157.2810
157.5072
157.3791
157.5981
157.3512
157.4490
157.2490
157.2525
157.2360
157.2542
157.2436
157.1635
157.2864
157.635
157.2787
157.2290
157.4200
157.2191
157.4291
157.1918
157.4234
157.2765
157.4337
157.2679
157.4075
157.3007
157.2595
157.3146
157.3638
157.4292
157.3192
157.4406
157.2388
157.4644
157.3128
157.4545
157.2304
157.4497
157.1289
157.2703
157.1781
157.3663
157.2211
157.2587
157.2092
157.1354
157.2646
157.2432
157.3327
157.2465
157.4850
157.2549
157.4976
157.3827
157.5943
157.3544
157.5372
157.3008
157.4233
157.2742
157.3631
157.2408
157.2450
157.2702
157.1187
157.2555
157.2465
157.3893
157.2201
157.4291
157.2083
157.4723
157.3173
157.4916
157.2960
157.5192
157.3008
157.3578
157.2991
157.4376
157.3872
157.3220
157.3776
157.2103
157.3811
157.2868
157.4003
157.2532
157.5077
157.2102
157.4034
157.2635
157.4755
157.2230
157.3302
157.1617
157.2196
157.2152
157.2786
157.2890
157.2896
157.4111
157.2141
157.4265
157.3781
157.5760
157.3730
157.5410
157.2675
157.4962
157.3090
157.4586
157.2685
157.3369
157.1853
157.1477
157.2013
157.2895
157.3490
157.2396
157.3802
157.1917
157.4534
157.3396
157.5158
157.3801
157.6349
157.3565
157.5419
157.3974
157.5915
157.4124
157.4486
157.3620
157.3201
157.3907
157.3731
157.4130
157.3069
157.4690
157.2013
157.4197
157.3413
157.5632
157.3607
157.5518
157.2958
157.4698
157.3389
157.4479
157.3374
157.3937
157.3780
157.3071
157.4437
157.4619
157.5658
157.4220
157.6016
157.3705
157.6083
157.4393
157.5989
157.3654
157.5692
157.2730
157.3521
157.2606
157.4127
157.3246
157.3306
157.3698
157.2585
157.4362
157.3847
157.4843
157.3891
157.6413
157.3945
157.6296
157.5098
157.7359
157.4892
157.6149
157.4004
157.4660
157.3653
157.4315
157.3667
157.3596
157.4368
157.2670
157.4245
157.3787
157.5462
157.3648
157.5717
157.3143
157.5753
157.4151
157.5770
157.3917
157.5630
157.3972
157.4452
157.4258
157.5386
157.5341
157.4377
157.5424
157.3756
157.5710
157.4581
157.5783
157.3852
157.6383
157.3034
157.4893
157.3523
157.5775
157.3660
157.4712
157.3263
157.3527
157.3764
157.4112
157.4237
157.3828
157.5523
157.3703
157.5907
157.5370
157.7375
157.5177
157.7143
157.4729
157.6709
157.4795
157.6039
157.4060
157.5193
157.3773
157.3002
157.3548
157.3996
157.4649
157.3803
157.5244
157.3205
157.5759
157.4533
157.5913
157.4554
157.7471
157.4811
157.6558
157.5336
157.7064
157.5246
157.5573
157.4890
157.4434
157.5160
157.4837
157.5268
157.4315
157.6186
157.3201
157.5376
157.4509
157.6717
157.4477
157.6345
157.3914
157.5737
157.4364
157.5600
157.4562
157.5508
157.5478
157.4680
157.5836
157.5871
157.6941
157.5755
157.7278
157.4658
157.7002
157.5452
157.7115
157.4861
157.6807
157.3890
157.4827
157.3856
157.5458
157.4356
157.4601
157.4840
157.3635
157.5278
157.4708
157.5842
157.5090
157.7702
157.5002
157.7309
157.5984
157.8311
157.5929
157.7791
157.5557
157.6470
157.5133
157.5595
157.4708
157.4528
157.5007
157.3154
157.4722
157.4705
157.6223
157.4680
157.6662
157.4223
157.6830
157.5357
157.7162
157.5331
157.7365
157.5127
157.5711
157.5221
157.6560
157.6188
157.5897
157.6458
157.4932
157.6608
157.5550
157.6631
157.4912
157.7326
157.4718
157.6739
157.5266
157.7377
157.5156
157.6540
157.5039
157.5672
157.5150
157.5804
157.5567
157.5416
157.6495
157.4723
157.6714
157.6509
157.8319
157.6262
157.8134
157.5634
157.7840
157.5968
157.7469
157.5237
157.6858
157.4890
157.4618
157.4543
157.5382
157.5544
157.4791
157.5935
157.4220
157.6531
157.5492
157.7049
157.6013
157.8827
157.6068
157.7988
157.6419
157.8522
157.6402
157.7179
157.5527
157.5457
157.5474
157.5561
157.5512
157.4850
157.6318
157.4110
157.6025
157.5559
157.7509
157.5451
157.7543
157.4936
157.7131
157.5575
157.7086
157.5512
157.6698
157.5717
157.5321
157.5872
157.6460
157.7044
157.6008
157.7418
157.5024
157.7248
157.5736
157.7258
157.5332
157.7671
157.4623
157.6204
157.4823
157.6692
157.4945
157.5547
157.4851
157.4619
157.5479
157.5628
157.6176
157.5684
157.7559
157.5405
157.7703
157.6935
157.9108
157.6789
157.8636
157.5849
157.7435
157.5809
157.6948
157.5275
157.5583
157.5227
157.3955
157.4920
157.5259
157.6268
157.4761
157.6567
157.4325
157.6955
157.5586
157.7506
157.6033
157.8626
157.5864
157.7200
157.6040
157.7715
157.6332
157.6277
157.6026
157.5260
157.6294
157.5791
157.6387
157.5137
157.7202
157.4293
157.6365
157.5433
157.7726
157.5424
157.7315
157.4981
157.6376
157.5184
157.6283
157.5226
157.5579
157.5994
157.4617
157.6120
157.6251
157.7599
157.5950
157.7693
157.5044
157.7487
157.5626
157.7347
157.5146
157.6933
157.4604
157.5352
157.4427
157.5679
157.5006
157.4272
157.4602
157.3550
157.5575
157.5324
157.6544
157.5391
157.8029
157.5515
157.7858
157.6703
157.9013
157.6466
157.7983
157.5639
157.6331
157.5306
157.5923
157.5312
157.5122
157.5763
157.3720
157.5376
157.5096
157.6823
157.5241
157.7601
157.4953
157.7459
157.5695
157.7498
157.5749
157.7873
157.5951
157.6351
157.5857
157.6861
157.6688
157.5999
157.6878
157.5342
157.7131
157.6033
157.7145
157.5498
157.7854
157.4813
157.6691
157.5426
157.7563
157.5354
157.6683
157.4673
157.4911
157.4907
157.5439
157.5581
157.5354
157.6804
157.4965
157.6994
157.6589
157.8503
157.6590
157.8595
157.5819
157.8023
157.5906
157.7237
157.5199
157.6491
157.4804
157.4404
157.4566
157.5302
157.5636
157.4751
157.5837
157.4199
157.6642
157.5808
157.7392
157.5888
157.8540
157.5789
157.7762
157.6586
157.8752
157.6675
157.7288
157.5707
157.5428
157.5728
157.5786
157.5974
157.4989
157.6659
157.3996
157.6047
157.5417
157.7566
157.5549
157.7776
157.5047
157.7198
157.5482
157.7180
157.5700
157.7191
157.6170
157.5665
157.6399
157.6760
157.7483
157.6131
157.7453
157.5581
157.7869
157.6421
157.7860
157.5928
157.7944
157.5447
157.6734
157.5476
157.7303
157.5572
157.6008
157.5666
157.5203
157.6134
157.6046
157.6687
157.6014
157.7982
157.5528
157.7857
157.7129
157.9323
157.7168
157.8985
157.6113
157.7741
157.6010
157.7095
157.5585
157.6120
157.5732
157.4556
157.5526
157.5650
157.6671
157.4954
157.6709
157.4615
157.7367
157.6022
157.7805
157.6250
157.8776
157.6336
157.7781
157.6685
157.8224
157.6936
157.6804
157.6518
157.5699
157.6870
157.6409
157.7057
157.5618
157.7683
157.4888
157.7013
157.6043
157.8318
157.5900
157.7874
157.5393
157.6832
157.5728
157.6924
157.5951
157.6391
157.6557
157.5088
157.6657
157.6971
157.8368
157.6705
157.8181
157.5560
157.8078
157.6329
157.8155
157.5925
157.8167
157.5643
157.6391
157.5342
157.6773
157.5940
157.5836
157.6070
157.4955
157.6750
157.6231
157.7155
157.6275
157.8775
157.6357
157.8751
157.7439
157.9642
157.7190
157.8406
157.6214
157.7139
157.6095
157.6921
157.6098
157.5765
157.6530
157.4880
157.6464
157.6198
157.7710
157.5988
157.8276
157.5754
157.8331
157.6823
157.8587
157.6756
157.8899
157.6769
157.7332
157.6709
157.7965
157.7474
157.7112
157.7622
157.5882
157.7548
157.6549
157.7619
157.6045
157.8531
157.5415
157.7448
157.6151
157.8431
157.5875
157.7170
157.5271
157.6033
157.5583
157.6415
157.6217
157.6428
157.7635
157.6027
157.7924
157.7512
157.9238
157.7360
157.9076
157.6250
157.8660
157.6777
157.8363
157.6273
157.7734
157.6006
157.5986
157.5728
157.6750
157.6633
157.5771
157.6990
157.5620
157.7778
157.6851
157.8205
157.6886
157.9363
157.6562
157.8661
157.7461
157.9705
157.7572
157.8502
157.6535
157.6744
157.6414
157.6589
157.6400
157.5647
157.7069
157.4683
157.6590
157.6263
157.8190
157.6166
157.8667
157.5818
157.8207
157.6547
157.8345
157.6603
157.8404
157.6626
157.6647
157.6873
157.7712
157.7998
157.6689
157.7809
157.6206
157.8328
157.7065
157.8249
157.6338
157.8859
157.5975
157.7882
157.6461
157.8383
157.6365
157.7531
157.6409
157.6374
157.6772
157.6867
157.7083
157.6497
157.8041
157.6155
157.8466
157.7877
157.9935
157.7664
157.9660
157.7067
157.9226
157.7071
157.8621
157.6739
157.7763
157.6319
157.5810
157.6289
157.6803
157.7397
157.6450
157.8090
157.6147
157.8590
157.7329
157.9042
157.7857
158.587
157.7564
157.9460
157.7872
158.18
157.8011
157.8642
157.7310
157.7024
157.7374
157.7261
157.7574
157.6652
157.8509
157.5809
157.7874
157.7083
157.9297
157.7097
157.9454
157.6761
157.8955
157.7324
157.8975
157.7441
157.8679
157.7727
157.7290
157.8031
157.8475
157.9195
157.7955
157.9371
157.7405
157.9682
157.7997
157.9606
157.7643
157.9873
157.6714
157.8314
157.6968
157.9118
157.7084
157.7788
157.7061
157.6695
157.7607
157.7524
157.8240
157.7808
157.9884
157.7312
157.9624
157.8752
158.999
157.8721
158.642
157.7635
157.9632
157.7641
157.9056
157.7189
157.8084
157.7414
157.6283
157.7214
157.7530
157.8426
157.7350
157.9086
157.7010
157.9628
157.8123
157.9908
157.8433
158.1244
157.8141
157.9998
157.8498
158.648
157.8776
157.9234
157.8495
157.7755
157.8520
157.8086
157.8556
157.7483
157.9260
157.6273
157.8592
157.7746
158.194
157.7849
157.9936
157.7348
157.9708
157.7951
157.9644
157.8368
157.9773
157.9045
157.8247
157.9307
157.9442
158.505
157.8990
158.397
157.8098
158.684
157.8981
158.824
157.8976
158.1496
157.8176
157.9988
157.8360
158.524
157.8704
157.9711
157.9248
157.8391
157.9759
157.9404
158.164
157.9402
158.2164
157.9370
158.1997
158.819
158.2707
158.319
158.1677
157.8918
158.551
157.8967
157.7628
157.7879
157.8263
157.8695
157.8015
157.8633
157.9528
157.8751
157.8669
157.8905
157.7388
157.8010
157.6761
157.3818
157.2887
157.1916
157.276
156.9553
157.535
157.930
157.1359
157.1953
157.2053
157.1776
157.2339
157.2892
157.2348
157.3513
157.4210
157.3176
157.3101
157.4080
157.3888
157.4543
157.4771
157.4187
157.4147
157.4380
157.3908
157.4020
157.4911
157.4793
157.3681
157.3209
157.3323
157.2703
157.2890
157.2228
157.885
156.9998
156.9013
156.7275
156.6833
156.6421
156.4780
156.2441
156.652
155.9322
155.7555
155.6572
155.4737
155.2153
155.426
154.8523
154.5903
154.5057
154.4094
154.2089
153.9537
153.7431
153.5944
153.4062
153.2902
153.988
152.8434
152.6366
152.4387
152.2124
152.744
151.9974
151.8528
151.5827
151.3799
151.2721
151.979
151.250
150.9113
150.7322
150.5572
150.4244
150.2781
150.1059
150.1075
150.382
149.8216
149.6407
149.5120
149.3713
149.2559
149.1677
149.148
148.7930
148.6365
148.4812
148.2630
148.1889
148.1343
147.9999
147.7628
147.5813
147.4920
147.3340
147.2733
147.1804
147.243
146.8474
146.7304
146.5996
146.4072
146.4129
146.3602
146.1891
145.9970
145.8338
145.7258
145.5730
145.5039
145.3628
145.1795
144.9875
144.8132
144.6616
144.4521
144.4218
144.3480
144.1340
143.9198
143.7501
143.6382
143.4948
143.4449
143.3283
143.1543
142.9906
142.8509
142.7118
142.5233
142.5269
142.4608
142.2828
142.827
141.9056
141.7947
141.6328
141.5541
141.4158
141.2416
141.204
140.8492
140.6923
140.4621
140.4017
140.3298
140.1931
139.9430
139.7463
139.6376
139.4728
139.3766
139.3123
139.1621
138.9535
138.8219
138.6650
138.4950
138.3584
138.3490
138.2741
138.612
137.8636
137.6764
137.5588
137.3972
137.3159
137.1751
137.12
136.7725
136.6011
136.4319
136.2129
136.1038
136.362
135.9264
135.6719
135.4685
135.3098
135.1743
135.302
134.9671
134.8424
134.6720
134.4783
134.3424
134.1923
133.9874
133.9238
133.8703
133.7669
133.5331
133.3368
133.1607
133.243
132.8681
132.7789
132.6292
132.4537
132.2247
132.510
131.8680
131.6606
131.5107
131.4517
131.3554
131.1274
130.9082
130.7082
130.5916
130.4211
130.3318
130.2423
130.904
129.8918
129.7344
129.5636
129.4112
129.2076
129.1794
129.1004
128.9722
128.7349
128.5332
128.3527
128.2084
128.522
127.9631
127.8147
127.6396
127.4127
127.2332
127.333
126.8583
126.6542
126.6079
126.5089
126.3522
126.1014
125.8899
125.7328
125.5882
125.4417
125.3702
125.2581
125.949
124.8903
124.7454
124.5667
124.4008
124.2088
124.1801
124.982
123.9693
123.7297
123.5290
123.3235
123.1826
123.112
122.9125
122.7929
122.6219
122.4150
122.2085
122.127
121.8364
121.6206
121.4984
121.4348
121.3341
121.1335
120.9001
120.6868
120.5374
120.3845
120.2495
120.1798
120.658
119.9009
119.6968
119.5408
119.3597
119.2012
119.15
118.9336
118.8780
118.7719
118.5615
118.3419
118.1230
117.9612
117.7983
117.6540
117.5603
117.4188
117.2495
117.378
116.8481
116.6458
116.4744
116.2644
116.1352
116.812
115.9833
115.8137
115.5765
115.3725
115.1906
115.557
114.8919
114.8011
114.7224
114.5733
114.3957
114.1957
114.498
113.8649
113.7004
113.5071
113.4550
113.3848
113.2760
113.662
112.8381
112.6272
112.4535
112.2999
112.1466
112.498
111.9388
111.7713
111.5809
111.3633
111.1856
110.9769
110.8136
110.6049
110.5261
110.4580
110.3584
110.1696
109.9421
109.7432
109.5555
109.4300
109.2646
109.1737
109.981
108.9708
108.8067
108.6140
108.4500
108.2713
108.1028
107.9242
107.7740
107.7450
107.6503
107.5253
107.3017
107.875
106.8702
106.6899
106.5414
106.3844
106.2902
106.1885
106.355
105.8610
105.6481
105.4640
105.2593
105.859
104.9118
104.7484
104.7076
104.6247
104.5261
104.3206
104.1047
103.9037
103.7205
103.5968
103.4408
103.3455
103.2742
103.1683
103.93
102.8281
102.6389
102.4856
102.3007
102.1391
101.9475
101.8543
101.8142
101.7070
101.5775
101.3499
101.1441
100.9330
100.7543
100.6137
100.4590
100.3617
100.2778
100.1475
99.9850
99.7991
99.5954
99.4297
99.2291
99.796
98.9062
98.7871
98.7556
98.6697
98.5707
98.3747
98.1607
97.9665
97.7662
97.6433
97.4957
97.3829
97.3120
97.2304
97.935
96.9307
96.7437
96.5638
96.4003
96.2149
96.605
95.8856
95.7916
95.7597
95.6584
95.5428
95.3439
95.1375
94.9477
94.7370
94.6024
94.4595
94.3315
94.2539
94.1681
94.355
93.8788
93.7066
93.5152
93.3564
93.1653
93.178
92.8616
92.7141
92.6730
92.6117
92.5185
92.3925
92.1776
91.9860
91.7916
91.6110
91.4958
91.3518
91.2476
91.1792
91.1081
90.9866
90.8344
90.6597
90.4793
90.3331
90.1549
89.9924
89.8421
89.6851
89.6321
89.6005
89.5000
89.3980
89.2081
89.93
88.8313
88.6268
88.4834
88.3625
88.2309
88.1525
88.852
87.9935
87.8611
87.7142
87.5441
87.3609
87.2133
87.306
86.8920
86.7562
86.6062
86.5573
86.5270
86.4449
86.3524
86.1807
85.9756
85.7978
85.5979
85.4460
85.3333
85.2005
85.1111
85.525
84.9979
84.8964
84.7541
84.5973
84.4201
84.2596
84.1061
83.9293
83.7905
83.6486
83.5213
83.4923
83.4639
83.3754
83.2807
83.1156
82.9204
82.7470
82.5577
82.3898
82.2743
82.1532
82.554
82.17
81.9504
81.8702
81.7407
81.6021
81.4410
81.2618
81.1169
80.9447
80.7931
80.6802
80.5417
80.4548
80.4404
80.4006
80.3225
80.2292
80.535
79.8615
79.6917
79.5048
79.3451
79.2408
79.1231
79.236
78.9763
78.9285
78.8713
78.7627
78.6250
78.4786
78.3117
78.1617
78.190
77.8568
77.7228
77.6068
77.4810
77.4365
77.4337
77.3823
77.2983
77.1987
77.249
76.8463
76.6806
76.4983
76.3395
76.2404
76.1383
76.444
76.11
75.9579
75.9087
75.8157
75.6925
75.5574
75.4018
75.2393
75.1031
74.9457
74.8072
74.7091
74.5969
74.4996
74.4809
74.4711
74.4136
74.3421
74.2386
74.636
73.8954
73.7345
73.5596
73.4135
73.3172
73.2117
73.1180
73.738
73.427
73.77
72.9413
72.8301
72.7008
72.5587
72.4065
72.2637
72.1297
71.9767
71.8496
71.7484
71.6386
71.5705
71.5698
71.5619
71.5008
71.4250
71.3165
71.1478
70.9878
70.8341
70.6705
70.5173
70.4207
70.3343
70.2457
70.1940
70.1694
70.1417
70.922
70.84
69.8982
69.7798
69.6429
69.4951
69.3704
69.2282
69.923
68.9959
68.9059
68.8004
68.7550
68.7603
68.7535
68.7031
68.6414
68.5435
68.3854
68.2314
68.845
67.9293
67.7734
67.6769
67.5923
67.5020
67.4359
67.4106
67.3857
67.3572
67.2973
67.2007
67.896
66.9639
66.8249
66.6917
66.5766
66.4415
66.3122
66.2139
66.1235
66.304
65.9883
65.9995
66.5
65.9536
65.8913
65.8143
65.6789
65.5264
65.3870
65.2432
65.852
64.9637
64.8876
64.8105
64.7373
64.7001
64.6865
64.6704
64.6450
64.5853
64.4934
64.3923
64.2743
64.1439
64.135
63.9026
63.7729
63.6527
63.5709
63.4965
63.4139
63.3671
63.3764
63.3962
63.3792
63.3355
63.2777
63.1773
63.302
62.8886
62.7575
62.6130
62.4656
62.3683
62.2984
62.2181
62.1521
62.1309
62.1243
62.1156
62.1019
62.550
61.9668
61.8726
61.7644
61.6412
61.5108
61.3981
61.2812
61.1594
61.605
60.9882
60.9167
60.8508
60.8430
60.8726
60.8870
60.8559
60.8086
60.7459
60.6370
60.4989
60.3682
60.2439
60.1135
59.9755
59.8840
59.8227
59.7635
59.7081
59.6862
59.6916
59.6906
59.6840
59.6488
59.5872
59.5067
59.4154
59.3116
59.1979
59.857
58.9906
58.8751
58.7686
58.6973
58.6399
58.5794
58.5300
58.5393
58.5731
58.5923
58.5724
58.5393
58.4908
58.3900
58.2517
58.1288
58.127
57.8892
57.7511
57.6540
57.5947
57.5404
57.4794
57.4521
57.4617
57.4697
57.4731
57.4690
57.4323
57.3649
57.2814
57.1916
57.860
56.9763
56.8722
56.7788
56.6731
56.5753
56.5009
56.4441
56.3904
56.3450
56.3508
56.3908
56.4215
56.4110
56.3749
56.3320
56.2582
56.1409
56.202
55.9091
55.8004
55.6821
55.5704
55.5001
55.4550
55.4154
55.3774
55.3641
55.3845
55.4016
55.4180
55.4196
55.3829
55.3219
55.2491
55.1674
55.762
54.9745
54.8785
54.7967
54.7032
54.6146
54.5535
54.5177
54.4807
54.4385
54.4410
54.4806
54.5299
54.5488
54.5344
54.5097
54.4687
54.3782
54.2594
54.1481
54.446
53.9389
53.8198
53.7251
53.6698
53.6310
53.5913
53.5605
53.5580
53.5822
53.6036
53.6267
53.6397
53.6207
53.5716
53.5033
53.4274
53.3394
53.2396
53.1451
53.641
52.9791
52.8868
52.8128
52.7595
52.7237
52.6860
52.6656
52.6886
52.7403
52.7885
52.7978
52.7812
52.7571
52.7123
52.6227
52.5118
52.4100
52.3164
52.2229
52.1190
52.349
51.9869
51.9602
51.9372
51.9201
51.9271
51.9589
51.9963
52.301
52.559
52.519
52.206
51.9710
51.9113
51.8433
51.7606
51.6676
51.5885
51.5206
51.4357
51.3657
51.3202
51.2972
51.2757
51.2533
51.2577
51.3048
51.3685
51.4192
51.4388
51.4354
51.4215
51.3792
51.2915
51.1902
51.959
51.68
50.9147
50.8092
50.7306
50.6901
50.6700
50.6415
50.6272
50.6357
50.6686
50.7071
50.7457
50.7835
50.7919
50.7748
50.7342
50.6708
50.6061
50.5224
50.4405
50.3543
50.2896
50.2167
50.1414
50.795
50.428
50.228
50.70
49.9938
50.200
50.805
50.1501
50.1957
50.2056
50.2011
50.1846
50.1381
50.500
49.9529
49.8701
49.7890
49.7034
49.6112
49.5401
49.5050
49.4896
49.4767
49.4741
49.4878
49.5298
49.5810
49.6281
49.6718
49.6963
49.6926
49.6683
49.6263
49.5724
49.5075
49.4333
49.3553
49.2923
49.2343
49.1652
49.1137
49.830
49.773
49.713
49.652
49.815
49.1391
49.2142
49.2837
49.3222
49.3351
49.3347
49.3154
49.2607
49.1725
49.860
49.64
48.9274
48.8420
48.7506
48.6984
48.6843
48.6750
48.6676
48.6713
48.6961
48.7475
48.7987
48.8469
48.8913
48.9152
48.9124
48.8842
48.8385
48.7831
48.7158
48.6435
48.5676
48.5064
48.4472
48.3827
48.3285
48.2931
48.2811
48.2761
48.2735
48.2874
48.3407
48.4173
48.4951
48.5382
48.5521
48.5557
48.5443
48.4978
48.4186
48.3317
48.2555
48.1820
48.1121
48.309
47.9728
47.9527
47.9506
47.9546
47.9620
47.9857
48.418
48.1055
48.1732
48.2329
48.2806
48.3021
48.2931
48.2689
48.2292
48.1813
48.1220
48.560
47.9946
47.9473
47.8936
47.8423
47.8100
47.8027
47.8111
47.8173
47.8228
47.8625
47.9429
48.289
48.1062
48.1484
48.1751
48.1886
48.1755
48.1252
48.482
47.9795
47.9132
47.8443
47.7736
47.6943
47.6541
47.6450
47.6492
47.6497
47.6547
47.6876
47.7501
47.8126
47.8728
47.9313
47.9770
47.9914
47.9798
47.9469
47.9065
47.8600
47.8060
47.7409
47.6824
47.6394
47.5880
47.5390
47.5039
47.4887
47.4944
47.4967
47.5034
47.5478
47.6266
47.7172
47.7891
47.8265
47.8490
47.8674
47.8589
47.8101
47.7396
47.6759
47.6181
47.5544
47.4882
47.4205
47.3850
47.3841
47.3963
47.4084
47.4262
47.4596
47.5235
47.5968
47.6659
47.7330
47.7842
47.8116
47.8147
47.8021
47.7756
47.7449
47.7026
47.6483
47.5986
47.5658
47.5188
47.4784
47.4600
47.4635
47.4775
47.4869
47.4986
47.5494
47.6366
47.7301
47.8093
47.8563
47.8913
47.9155
47.9162
47.8754
47.8085
47.7492
47.6934
47.6284
47.5656
47.4983
47.4717
47.4750
47.4868
47.4972
47.5121
47.5498
47.6155
47.6878
47.7501
47.8196
47.8658
47.8900
47.8893
47.8687
47.8366
47.7991
47.7547
47.6958
47.6443
47.6070
47.5650
47.5230
47.4982
47.5001
47.5101
47.5203
47.5342
47.5801
47.6643
47.7633
47.8440
47.8915
47.9203
47.9424
47.9381
47.8961
47.8363
47.7799
47.7315
47.6757
47.6195
47.5624
47.5385
47.5461
47.5659
47.5836
47.6046
47.6505
47.7274
47.8072
47.8886
47.9599
48.146
48.477
48.547
48.445
48.263
47.9954
47.9605
47.9118
47.8762
47.8459
47.8089
47.7790
47.7732
47.7898
47.8102
47.8242
47.8548
47.9277
48.297
48.1305
48.2052
48.2570
48.2918
48.3149
48.3068
48.2571
48.1950
48.1477
48.1009
48.463
47.9853
47.9419
47.9351
47.9501
47.9678
47.9819
48.127
48.732
48.1493
48.2229
48.2974
48.3682
48.4144
48.4316
48.4268
48.4078
48.3769
48.3400
48.2969
48.2478
48.2167
48.1807
48.1426
48.1181
48.1157
48.1317
48.1454
48.1572
48.2037
48.2948
48.4020
48.4923
48.5517
48.5911
48.6214
48.6322
48.6034
48.5491
48.5028
48.4604
48.4109
48.3619
48.3127
48.2971
48.3129
48.3390
48.3632
48.3934
48.4453
48.5216
48.6066
48.6887
48.7647
48.8168
48.8454
48.8533
48.8493
48.8393
48.8127
48.7805
48.7397
48.7147
48.6860
48.6562
48.6402
48.6471
48.6711
48.6917
48.7100
48.7616
48.8533
48.9629
49.558
49.1224
49.1668
49.2023
49.2137
49.1841
49.1259
49.786
49.403
48.9910
48.9411
48.8934
48.8847
48.9062
48.9301
48.9490
48.9825
49.446
49.1200
49.1989
49.2751
49.3502
49.3967
49.4146
49.4066
49.3920
49.3626
49.3266
49.2815
49.2370
49.2157
49.1852
49.1584
49.1443
49.1535
49.1720
49.1880
49.2106
49.2768
49.3769
49.4860
49.5677
49.6169
49.6560
49.6832
49.6758
49.6301
49.5753
49.5293
49.4851
49.4411
49.3904
49.3635
49.3730
49.4023
49.4306
49.4631
49.5108
49.5950
49.6882
49.7741
49.8566
49.9172
49.9547
49.9640
49.9623
49.9482
49.9216
49.8867
49.8468
49.8282
49.8049
49.7767
49.7658
49.7821
49.8135
49.8380
49.8617
49.9276
50.331
50.1438
50.2359
50.2943
50.3439
50.3734
50.3693
50.3253
50.2719
50.2302
50.1844
50.1381
50.821
50.584
50.712
50.961
50.1147
50.1456
50.2033
50.2857
50.3762
50.4611
50.5437
50.5985
50.6243
50.6231
50.6108
50.5848
50.5537
50.5131
50.4741
50.4502
50.4195
50.3870
50.3739
50.3856
50.4056
50.4225
50.4557
50.5320
50.6447
50.7558
50.8315
50.8762
50.9173
50.9398
50.9191
50.8668
50.8197
50.7819
50.7361
50.6874
50.6439
50.6397
50.6616
50.6862
50.7143
50.7554
50.8264
50.9136
51.33
51.891
51.1576
51.2001
51.2147
51.2192
51.2095
51.1892
51.1546
51.1207
51.993
51.772
51.498
51.422
51.619
51.922
51.1120
51.1455
51.2219
51.3383
51.4516
51.5345
51.5932
51.6397
51.6644
51.6484
51.5983
51.5522
51.5099
51.4642
51.4127
51.3702
51.3742
51.3971
51.4227
51.4462
51.4916
51.5680
51.6531
51.7396
51.8243
51.8883
51.9181
51.9245
51.9209
51.9026
51.8728
51.8295
51.7907
51.7778
51.7490
51.7200
51.7123
51.7301
51.7508
51.7706
51.8115
51.9040
52.181
52.1213
52.1862
52.2344
52.2691
52.2748
52.2371
52.1867
52.1482
52.1067
52.669
52.166
51.9997
52.191
52.481
52.757
52.1144
52.1816
52.2730
52.3656
52.4559
52.5286
52.5738
52.5948
52.5974
52.5884
52.5661
52.5336
52.4952
52.4798
52.4532
52.4263
52.4253
52.4497
52.4764
52.4925
52.5322
52.6225
52.7392
52.8469
52.9176
52.9735
53.191
53.256
52.9875
52.9336
52.8913
52.8509
52.8071
52.7577
52.7432
52.7668
52.7892
52.8056
52.8439
52.9110
52.9998
53.874
53.1757
53.2430
53.2791
53.2891
53.2821
53.2597
53.2307
53.1899
53.1509
53.1347
53.1060
53.802
53.710
53.884
53.1077
53.1309
53.1820
53.2857
53.4079
53.4995
53.5551
53.6025
53.6273
53.6122
53.5598
53.5138
53.4743
53.4274
53.3814
53.3455
53.3551
53.3857
53.4164
53.4492
53.5079
53.5933
53.6863
53.7757
53.8521
53.9003
53.9202
53.9216
53.9127
53.8895
53.8584
53.8191
53.8054
53.7796
53.7569
53.7586
53.7874
53.8124
53.8275
53.8794
53.9776
54.953
54.1936
54.2538
54.3068
54.3381
54.3252
54.2722
54.2246
54.1857
54.1395
54.889
54.536
54.665
54.951
54.1133
54.1399
54.2010
54.2876
54.3709
54.4614
54.5374
54.5747
54.5854
54.5780
54.5559
54.5228
54.4794
54.4387
54.4250
54.3924
54.3708
54.3731
54.3908
54.4111
54.4300
54.4878
54.5973
54.7149
54.8009
54.8511
54.8905
54.9105
54.8824
54.8244
54.7765
54.7342
54.6916
54.6393
54.6178
54.6392
54.6722
54.7000
54.7415
54.8179
54.9130
55.51
55.877
55.1464
55.1739
55.1830
55.1752
55.1525
55.1196
55.778
55.615
55.425
55.184
55.136
55.359
55.610
55.790
55.1269
55.2288
55.3478
55.4451
55.5054
55.5569
55.5799
55.5574
55.4985
55.4520
55.4100
55.3635
55.3095
55.2832
55.3016
55.3292
55.3452
55.3793
55.4472
55.5352
55.6208
55.7050
55.7644
55.7870
55.7847
55.7726
55.7444
55.7097
55.6664
55.6481
55.6232
55.5933
55.5805
55.5900
55.6077
55.6191
55.6586
55.7567
55.8730
55.9608
56.95
56.525
56.751
56.495
55.9908
55.9463
55.9055
55.8627
55.8077
55.7876
55.8082
55.8290
55.8532
55.8911
55.9601
56.514
56.1396
56.2139
56.2649
56.2816
56.2817
56.2709
56.2462
56.2105
56.1790
56.1670
56.1398
56.1180
56.1259
56.1529
56.1740
56.1926
56.2622
56.3727
56.4832
56.5569
56.6047
56.6429
56.6419
56.5917
56.5329
56.4902
56.4443
56.3912
56.3521
56.3617
56.3849
56.4025
56.4278
56.4883
56.5702
56.6548
56.7380
56.7982
56.8238
56.8212
56.8053
56.7794
56.7402
56.7025
56.6765
56.6529
56.6236
56.6156
56.6285
56.6445
56.6559
56.6996
56.8018
56.9155
56.9948
57.407
57.728
57.839
57.420
56.9847
56.9445
56.9012
56.8608
56.8156
56.8158
56.8452
56.8704
56.8965
56.9478
57.300
57.1137
57.1932
57.2571
57.2857
57.2917
57.2818
57.2607
57.2316
57.1944
57.1738
57.1504
57.1234
57.1205
57.1472
57.1670
57.1782
57.2352
57.3383
57.4532
57.5325
57.5849
57.6233
57.6288
57.5823
57.5232
57.4797
57.4334
57.3798
57.3383
57.3457
57.3697
57.3865
57.4090
57.4701
57.5505
57.6315
57.7090
57.7672
57.7872
57.7774
57.7603
57.7310
57.6925
57.6531
57.6363
57.6036
57.5754
57.5707
57.5831
57.5966
57.6087
57.6720
57.7853
57.8903
57.9489
57.9855
58.151
58.19
57.9411
57.8904
57.8494
57.8053
57.7488
57.7204
57.7381
57.7624
57.7834
57.8191
57.8925
57.9764
58.623
58.1335
58.1721
58.1754
58.1675
58.1481
58.1166
58.772
58.481
58.294
57.9983
57.9903
58.119
58.332
58.417
58.860
58.1851
58.2965
58.3771
58.4276
58.4668
58.4744
58.4277
58.3638
58.3205
58.2755
58.2169
58.1760
58.1859
58.2112
58.2222
58.2455
58.3058
58.3853
58.4656
58.5405
58.5874
58.5962
58.5854
58.5650
58.5294
58.4929
58.4557
58.4383
58.4076
58.3848
58.3848
58.3975
58.4034
58.4300
58.5129
58.6244
58.7107
58.7554
58.7897
58.7986
58.7605
58.6980
58.6577
58.6127
58.5642
58.5172
58.5185
58.5404
58.5625
58.5816
58.6338
58.7149
58.7973
58.8698
58.9194
58.9349
58.9309
58.9210
58.8948
58.8579
58.8201
58.8048
58.7763
58.7571
58.7688
58.7917
58.8008
58.8299
58.9187
59.278
59.1127
59.1584
59.1977
59.2096
59.1655
59.1019
59.571
59.122
58.9580
58.9144
58.9209
58.9420
58.9504
58.9725
59.343
59.1152
59.1884
59.2615
59.3072
59.3106
59.2963
59.2722
59.2331
59.1898
59.1543
59.1394
59.1101
59.925
59.971
59.1080
59.1112
59.1494
59.2438
59.3546
59.4286
59.4666
59.4998
59.4988
59.4437
59.3830
59.3386
59.2910
59.2303
59.1972
59.2112
59.2321
59.2472
59.2738
59.3434
59.4247
59.5049
59.5692
59.6010
59.6035
59.5920
59.5660
59.5360
59.4942
59.4699
59.4393
59.4047
59.4031
59.4248
59.4359
59.4431
59.5098
59.6181
59.7149
59.7749
59.8173
59.8440
59.8182
59.7523
59.6996
59.6537
59.5984
59.5373
59.5300
59.5471
59.5563
59.5699
59.6199
59.6953
59.7746
59.8465
59.8950
59.9057
59.8933
59.8653
59.8303
59.7856
59.7456
59.7235
59.6895
59.6627
59.6615
59.6719
59.6731
59.7057
59.7968
59.9039
59.9800
60.129
60.452
60.405
59.9853
59.9221
59.8765
59.8252
59.7651
59.7315
59.7437
59.7637
59.7775
59.8072
59.8770
59.9532
60.308
60.895
60.1167
60.1166
60.1045
60.763
60.368
59.9942
59.9725
59.9378
59.9083
59.9098
59.9314
59.9354
59.9530
60.311
60.1365
60.2266
60.2768
60.3136
60.3276
60.2861
60.2193
60.1697
60.1202
60.577
60.77
60.147
60.338
60.402
60.595
60.1184
60.1926
60.2661
60.3318
60.3684
60.3676
60.3507
60.3200
60.2782
60.2301
60.2030
60.1760
60.1416
60.1235
60.1328
60.1382
60.1396
60.1980
60.3026
60.3951
60.4459
60.4788
60.4964
60.4658
60.3981
60.3532
60.3030
60.2499
60.1990
60.1932
60.2145
60.2293
60.2452
60.2987
60.3737
60.4507
60.5151
60.5540
60.5579
60.5480
60.5262
60.4881
60.4465
60.4141
60.3901
60.3510
60.3386
60.3520
60.3602
60.3602
60.4138
60.5157
60.6116
60.6663
60.7060
60.7290
60.6981
60.6305
60.5797
60.5324
60.4762
60.4182
60.4134
60.4278
60.4323
60.4429
60.4892
60.5601
60.6354
60.7048
60.7439
60.7471
60.7302
60.7030
60.6612
60.6177
60.5828
60.5564
60.5163
60.4956
60.4960
60.4976
60.4964
60.5482
60.6468
60.7445
60.7927
60.8269
60.8444
60.8131
60.7434
60.6900
60.6365
60.5838
60.5275
60.5179
60.5346
60.5440
60.5582
60.6085
60.6819
60.7560
60.8183
60.8552
60.8580
60.8446
60.8213
60.7830
60.7365
60.7077
60.6803
60.6404
60.6309
60.6472
60.6506
60.6511
60.7112
60.8144
60.9086
60.9636
61.17
61.210
60.9819
60.9107
60.8571
60.8005
60.7407
60.6845
60.6867
60.7020
60.7059
60.7177
60.7756
60.8481
60.9192
60.9826
61.133
61.95
60.9897
60.9549
60.9193
60.8676
60.8414
60.8042
60.7642
60.7488
60.7509
60.7504
60.7536
60.8138
60.9230
61.80
61.555
61.816
61.946
61.487
60.9809
60.9293
60.8745
60.8148
60.7670
60.7716
60.7885
60.7965
60.8169
60.8786
60.9519
61.253
61.790
61.1019
61.942
61.769
61.448
61.4
60.9547
60.9296
60.8939
60.8635
60.8663
60.8847
60.8795
60.9009
60.9774
61.815
61.1571
61.1983
61.2332
61.2324
61.1736
61.1026
61.505
60.9967
60.9295
60.8993
60.9091
60.9229
60.9288
60.9553
61.174
61.889
61.1586
61.2078
61.2176
61.1986
61.1703
61.1315
61.878
61.432
61.195
60.9823
60.9509
60.9435
60.9493
60.9416
60.9684
61.556
61.1591
61.2224
61.2555
61.2772
61.2578
61.1912
61.1324
61.795
61.280
60.9639
60.9416
60.9536
60.9681
60.9804
61.211
61.871
61.1581
61.2202
61.2580
61.2636
61.2516
61.2267
61.1906
61.1447
61.1068
61.774
61.357
61.209
61.330
61.380
61.367
61.829
61.1800
61.2728
61.3253
61.3609
61.3778
61.3403
61.2675
61.2143
61.1589
61.972
61.357
61.310
61.443
61.446
61.532
61.1060
61.1742
61.2464
61.3085
61.3367
61.3272
61.3041
61.2671
61.2205
61.1679
61.1409
61.1029
61.670
61.495
61.521
61.484
61.547
61.1180
61.2236
61.3051
61.3437
61.3722
61.3794
61.3297
61.2633
61.2079
61.1494
61.830
61.389
61.400
61.556
61.612
61.818
61.1427
61.2158
61.2845
61.3350
61.3535
61.3409
61.3210
61.2863
61.2400
61.1918
61.1698
61.1303
61.1040
61.1060
61.1156
61.1104
61.1336
61.2213
61.3196
61.3895
61.4306
61.4642
61.4506
61.3832
61.3185
61.2674
61.2090
61.1370
61.1125
61.1228
61.1255
61.1309
61.1657
61.2302
61.2967
61.3640
61.4075
61.4111
61.3912
61.3600
61.3211
61.2700
61.2306
61.2028
61.1617
61.1335
61.1309
61.1293
61.1153
61.1636
61.2611
61.3536
61.4024
61.4294
61.4484
61.4132
61.3438
61.2926
61.2389
61.1806
61.1218
61.1175
61.1315
61.1407
61.1525
61.2027
61.2703
61.3397
61.3961
61.4208
61.4159
61.3974
61.3704
61.3323
61.2781
61.2497
61.2112
61.1722
61.1633
61.1746
61.1675
61.1755
61.2474
61.3494
61.4275
61.4710
61.5034
61.5029
61.4490
61.3776
61.3227
61.2644
61.1947
61.1543
61.1616
61.1680
61.1678
61.1931
61.2515
61.3171
61.3797
61.4263
61.4369
61.4156
61.3848
61.3426
61.2951
61.2487
61.2226
61.1803
61.1487
61.1408
61.1416
61.1321
61.1541
61.2382
61.3377
61.3935
61.4233
61.4397
61.4197
61.3522
61.2950
61.2425
61.1910
61.1233
61.1019
61.1108
61.1226
61.1264
61.1625
61.2282
61.2941
61.3536
61.3887
61.3875
61.3739
61.3442
61.3047
61.2538
61.2169
61.1882
61.1465
61.1321
61.1413
61.1398
61.1326
61.1842
61.2814
61.3678
61.4146
61.4472
61.4629
61.4195
61.3455
61.2898
61.2332
61.1705
61.1144
61.1095
61.1189
61.1163
61.1274
61.1817
61.2479
61.3150
61.3723
61.3952
61.3803
61.3520
61.3126
61.2690
61.2103
61.1823
61.1473
61.1075
61.917
61.949
61.884
61.943
61.1637
61.2647
61.3358
61.3672
61.3951
61.3934
61.3310
61.2646
61.2097
61.1539
61.887
61.500
61.587
61.753
61.817
61.1089
61.1700
61.2392
61.3025
61.3450
61.3517
61.3386
61.3146
61.2778
61.2308
61.1849
61.1575
61.1169
61.938
61.1022
61.1084
61.987
61.1284
61.2096
61.3054
61.3665
61.4007
61.4217
61.3987
61.3309
61.2654
61.2102
61.1529
61.849
61.667
61.752
61.797
61.838
61.1265
61.1941
61.2608
61.3243
61.3576
61.3520
61.3250
61.2867
61.2388
61.1834
61.1445
61.1134
61.728
61.497
61.501
61.508
61.445
61.941
61.1906
61.2787
61.3190
61.3416
61.3454
61.3041
61.2279
61.1713
61.1160
61.575
60.9986
60.9942
61.119
61.175
61.308
61.816
61.1481
61.2131
61.2641
61.2843
61.2750
61.2497
61.2147
61.1689
61.1184
61.901
61.545
61.149
61.33
61.163
61.134
61.164
61.845
61.1833
61.2588
61.2999
61.3266
61.3261
61.2727
61.2049
61.1518
61.954
61.271
60.9830
60.9861
60.9944
60.9934
61.126
61.689
61.1348
61.1996
61.2494
61.2608
61.2437
61.2126
61.1705
61.1201
61.685
61.397
60.9990
60.9651
60.9506
60.9506
60.9439
60.9592
61.390
61.1421
61.2049
61.2379
61.2581
61.2460
61.1821
61.1130
61.556
60.9971
60.9263
60.8918
60.8984
60.9098
60.9143
60.9457
61.113
61.818
61.1440
61.1829
61.1892
61.1762
61.1509
61.1119
61.636
61.201
60.9921
60.9475
60.9243
60.9280
60.9339
60.9262
60.9622
61.457
61.1421
61.1993
61.2337
61.2581
61.2299
61.1575
61.944
61.399
60.9798
60.9133
60.8978
60.9061
60.9075
60.9105
60.9493
61.167
61.856
61.1500
61.1855
61.1819
61.1581
61.1207
61.764
61.273
60.9868
60.9529
60.9112
60.8849
60.8789
60.8740
60.8660
60.9119
61.100
61.1004
61.1417
61.1653
61.1805
61.1379
61.638
61.71
60.9515
60.8946
60.8357
60.8278
60.8423
60.8508
60.8642
60.9149
60.9822
61.526
61.1093
61.1332
61.1234
61.982
61.668
61.207
60.9651
60.9312
60.8940
60.8538
60.8441
60.8552
60.8524
60.8538
60.9143
61.150
61.1003
61.1425
61.1742
61.1739
61.1246
61.501
60.9916
60.9348
60.8661
60.8138
60.8170
60.8248
60.8236
60.8377
60.8959
60.9607
61.243
61.760
61.898
61.737
61.426
60.9995
60.9496
60.8916
60.8638
60.8214
60.7803
60.7646
60.7625
60.7550
60.7601
60.8300
60.9300
61.53
61.369
61.588
61.516
60.9902
60.9171
60.8597
60.8027
60.7328
60.6895
60.6908
60.7038
60.7032
60.7209
60.7787
60.8437
60.9092
60.9548
60.9712
60.9578
60.9344
60.8988
60.8509
60.7978
60.7699
60.7211
60.6860
60.6817
60.6890
60.6822
60.6969
60.7786
60.8780
60.9495
60.9912
61.181
61.94
60.9448
60.8753
60.8128
60.7517
60.6750
60.6348
60.6406
60.6437
60.6404
60.6631
60.7262
60.7928
60.8575
60.9061
60.9192
60.8980
60.8679
60.8210
60.7716
60.7146
60.6873
60.6397
60.6029
60.5877
60.5861
60.5751
60.5923
60.6725
60.7695
60.8356
60.8668
60.8882
60.8801
60.8166

END