=~=~=~=~=~=~=~=~=~=~=~= PuTTY log 2025.04.24 09:04:24 =~=~=~=~=~=~=~=~=~=~=~=




Speed (Hz)
59.9075
60.1380
60.4619
60.6097
60.5379
60.4233
60.3640
60.3817
60.4472
60.4021
60.2621
60.2306
60.2967
60.3527
60.3615
60.2849
60.2213
60.2038
60.2217
60.2669
60.2539
60.1398
60.880
60.1363
60.2028
60.2504
60.1987
60.1426
60.1392
60.1702
60.2141
60.1760
60.420
59.9886
60.396
60.1025
60.1557
60.1316
60.681
60.324
60.412
60.1092
60.1282
60.27
59.9304
59.9933
60.771
60.1142
60.486
59.9725
59.9652
59.9943
60.386
60.636
59.9740
59.8915
59.9087
59.9817
60.678
60.717
59.9986
59.9767
60.87
60.665
60.853
59.9729
59.9010
59.9393
60.59
60.676
60.959
60.527
60.169
60.260
60.829
60.1432
60.532
59.9550
59.9878
60.804
60.1393
60.1215
60.447
60.152
60.334
60.778
60.1319
60.775
59.9816
59.9744
60.355
60.1113
60.1369
60.673
60.315
60.562
60.1039
60.1415
60.558
59.9413
59.9392
60.94
60.667
60.1049
60.586
60.86
59.9987
60.305
60.1014
60.597
59.9326
59.9116
59.9927
60.569
60.695
59.9906
59.9458
59.9609
59.9966
60.461
60.277
59.9292
59.8911
59.9358
60.106
60.763
60.258
59.9646
59.9716
60.250
60.762
60.404
59.9209
59.8958
59.9583
60.256
60.893
60.790
60.302
60.84
60.348
60.1153
60.1283
60.45
59.9463
60.136
60.902
60.1390
60.947
60.348
60.290
60.532
60.985
60.1243
60.382
59.9735
60.36
60.726
60.1399
60.1127
60.421
60.342
60.692
60.1209
60.1202
59.9938
59.9182
59.9617
60.331
60.947
60.1051
60.440
59.9968
59.9995
60.496
60.1004
59.9971
59.8979
59.9357
60.179
60.663
60.457
59.9675
59.9427
59.9651
60.22
60.467
59.9824
59.8883
59.8796
59.9434
60.221
60.525
59.9753
59.9342
59.9610
60.180
60.611
59.9874
59.8901
59.8987
59.9660
60.301
60.777
60.363
59.9945
59.9912
60.384
60.1187
60.649
59.9444
59.9384
60.241
60.892
60.1058
60.362
59.9899
59.9972
60.385
60.1004
60.818
59.9719
59.9367
59.9938
60.629
60.1128
60.605
60.44
60.118
60.534
60.1020
60.590
59.9336
59.8968
59.9569
60.254
60.798
60.510
59.9904
59.9636
59.9782
60.438
60.515
59.9275
59.8730
59.9359
60.60
60.370
59.9786
59.9155
59.9161
59.9453
59.9924
60.193
59.9287
59.8574
59.8836
59.9585
60.371
60.198
59.9431
59.9309
59.9713
60.272
60.340
59.9176
59.8485
59.8985
59.9734
60.374
60.565
60.102
59.9853
60.7
60.601
60.1192
60.231
59.9254
59.9632
60.518
60.1095
60.909
60.195
59.9987
60.149
60.569
60.1077
60.423
59.9482
59.9488
60.191
60.920
60.1159
60.465
60.118
60.355
60.836
60.1220
60.306
59.9141
59.9161
59.9888
60.544
60.922
60.414
59.9879
59.9780
60.169
60.872
60.375
59.9139
59.8982
59.9824
60.499
60.599
59.9751
59.9279
59.9455
59.9777
60.275
60.57
59.8995
59.8563
59.9099
59.9898
60.558
60.47
59.9457
59.9573
60.72
60.566
60.219
59.9053
59.8828
59.9406
60.37
60.655
60.536
60.1
59.9808
60.142
60.898
60.955
59.9700
59.9214
59.9946
60.710
60.1132
60.714
60.127
60.10
60.251
60.787
60.999
60.30
59.9316
59.9632
60.342
60.1028
60.839
60.196
60.113
60.449
60.980
60.1056
59.9805
59.9010
59.9427
60.138
60.675
60.754
60.180
59.9723
59.9683
60.220
60.772
59.9837
59.8840
59.9145
59.9997
60.515
60.308
59.9524
59.9280
59.9556
59.9985
60.392
59.9685
59.8702
59.8609
59.9292
60.148
60.486
59.9772
59.9382
59.9675
60.228
60.643
59.9835
59.8826
59.8972
59.9634
60.257
60.739
60.361
59.9926
59.9927
60.453
60.1182
60.605
59.9424
59.9443
60.331
60.1009
60.1166
60.487
59.9999
60.52
60.402
60.955
60.781
59.9747
59.9365
59.9911
60.646
60.1185
60.655
60.153
60.243
60.642
60.1106
60.694
59.9459
59.9087
59.9703
60.295
60.826
60.591
60.54
59.9736
59.9953
60.640
60.718
59.9463
59.8857
59.9493
60.314
60.700
60.31
59.9334
59.9308
59.9593
60.34
60.255
59.9287
59.8584
59.8856
59.9550
60.341
60.244
59.9571
59.9400
59.9825
60.401
60.513
59.9371
59.8679
59.9059
59.9793
60.441
60.649
60.151
59.9739
59.9882
60.588
60.1173
60.167
59.9292
59.9682
60.535
60.1079
60.915
60.223
59.9911
60.87
60.521
60.1039
60.385
59.9400
59.9400
60.96
60.890
60.1120
60.401
60.88
60.353
60.778
60.1082
60.206
59.9132
59.9147
59.9775
60.374
60.731
60.243
59.9763
59.9599
59.9969
60.728
60.231
59.8979
59.8843
59.9629
60.333
60.442
59.9598
59.9171
59.9331
59.9679
60.159
59.9945
59.8866
59.8448
59.8932
59.9781
60.433
59.9891
59.9294
59.9453
59.9956
60.469
60.171
59.8995
59.8716
59.9359
59.9931
60.485
60.346
59.9890
59.9731
60.80
60.789
60.848
59.9583
59.9110
59.9846
60.682
60.1124
60.660
60.30
59.9887
60.107
60.600
60.905
59.9885
59.9102
59.9408
60.152
60.873
60.688
60.55
60.24
60.363
60.891
60.939
59.9678
59.8840
59.9198
59.9938
60.548
60.585
59.9992
59.9637
59.9672
60.158
60.697
59.9709
59.8706
59.9017
59.9919
60.475
60.177
59.9307
59.9097
59.9317
59.9693
60.177
59.9521
59.8534
59.8495
59.9169
60.2
60.326
59.9639
59.9300
59.9619
60.147
60.497
59.9687
59.8716
59.8847
59.9534
60.156
60.663
60.222
59.9721
59.9686
60.245
60.1086
60.665
59.9469
59.9430
60.274
60.950
60.1124
60.459
60.106
60.183
60.452
60.991
60.836
59.9761
59.9403
59.9975
60.701
60.1277
60.747
60.232
60.341
60.810
60.1300
60.837
59.9534
59.9154
59.9760
60.391
60.913
60.630
60.113
59.9868
60.13
60.668
60.733
59.9458
59.8911
59.9631
60.418
60.815
60.198
59.9561
59.9548
59.9819
60.258
60.489
59.9476
59.8756
59.8998
59.9761
60.608
60.495
59.9734
59.9629
60.53
60.676
60.771
59.9638
59.8934
59.9348
60.80
60.716
60.861
60.327
59.9964
60.145
60.831
60.1418
60.394
59.9470
59.9861
60.736
60.1317
60.1138
60.410
60.185
60.357
60.789
60.1295
60.611
59.9656
59.9668
60.355
60.1138
60.1335
60.603
60.286
60.545
60.1030
60.1377
60.395
59.9282
59.9308
60.10
60.600
60.917
60.388
59.9964
59.9885
60.235
60.876
60.358
59.9125
59.9088
59.9966
60.573
60.579
59.9724
59.9286
59.9440
59.9804
60.290
60.22
59.8927
59.8543
59.9065
59.9869
60.530
59.9983
59.9405
59.9506
60.9
60.513
60.87
59.8963
59.8766
59.9383
60.17
60.609
60.427
59.9945
59.9772
60.117
60.873
60.945
59.9738
59.9306
60.48
60.825
60.1196
60.664
60.60
59.9999
60.283
60.757
60.946
60.33
59.9372
59.9732
60.443
60.1133
60.917
60.203
60.143
60.534
60.1073
60.1090
59.9812
59.9016
59.9426
60.194
60.767
60.795
60.280
59.9957
59.9959
60.447
60.944
59.9959
59.9017
59.9325
60.172
60.710
60.410
59.9649
59.9467
59.9719
60.154
60.645
59.9970
59.8983
59.8958
59.9683
60.579
60.864
60.78
59.9676
59.9973
60.604
60.1021
60.144
59.9211
59.9343
60.54
60.658
60.1116
60.739
60.333
60.429
60.958
60.1658
60.997
59.9828
59.9894
60.750
60.1401
60.1508
60.849
60.491
60.575
60.901
60.1443
60.1177
60.176
59.9932
60.510
60.1222
60.1681
60.1057
60.559
60.692
60.1090
60.1558
60.994
59.9725
59.9469
60.152
60.802
60.1232
60.863
60.343
60.121
60.391
60.1074
60.1036
59.9782
59.9268
59.9901
60.648
60.947
60.249
59.9648
59.9663
59.9933
60.403
60.535
59.9581
59.8926
59.9263
59.9976
60.719
60.508
59.9797
59.9749
60.186
60.740
60.679
59.9465
59.8952
59.9466
60.181
60.832
60.866
60.370
60.55
60.234
60.973
60.1436
60.329
59.9517
60.56
60.924
60.1392
60.1106
60.405
60.187
60.403
60.880
60.1271
60.443
59.9614
59.9755
60.425
60.1149
60.1219
60.496
60.284
60.618
60.1058
60.1316
60.254
59.9201
59.9342
60.80
60.681
60.928
60.403
60.1
59.9918
60.286
60.965
60.298
59.9064
59.9143
60.7
60.615
60.561
59.9762
59.9414
59.9586
59.9976
60.466
60.39
59.8952
59.8687
59.9319
60.206
60.744
60.116
59.9587
59.9791
60.367
60.815
60.310
59.9145
59.8925
59.9549
60.243
60.852
60.601
60.148
60.4
60.454
60.1320
60.1180
59.9931
59.9588
60.424
60.1199
60.1490
60.852
60.345
60.336
60.603
60.1142
60.1290
60.283
59.9643
60.16
60.771
60.1508
60.1138
60.523
60.523
60.861
60.1401
60.1244
59.9934
59.9329
59.9826
60.513
60.1058
60.929
60.393
60.87
60.146
60.730
60.1151
60.81
59.9285
59.9756
60.555
60.956
60.461
59.9659
59.9560
59.9838
60.242
60.590
59.9786
59.8934
59.9064
59.9802
60.580
60.679
59.9929
59.9720
60.96
60.623
60.844
59.9802
59.8983
59.9314
60.41
60.600
60.893
60.491
60.152
60.234
60.820
60.1541
60.763
59.9624
59.9867
60.731
60.1351
60.1300
60.538
60.262
60.403
60.741
60.1227
60.776
59.9754
59.9555
60.214
60.957
60.1361
60.730
60.286
60.469
60.976
60.1396
60.665
59.9423
59.9269
59.9950
60.576
60.984
60.561
60.70
59.9839
60.66
60.824
60.664
59.9371
59.9030
59.9758
60.474
60.735
60.8
59.9475
59.9541
59.9901
60.359
60.261
59.9217
59.8705
59.9161
59.9984
60.704
60.308
59.9680
59.9724
60.178
60.710
60.540
59.9391
59.8897
59.9410
60.77
60.726
60.752
60.260
59.9999
60.240
60.955
60.1306
60.220
59.9544
60.138
60.961
60.1458
60.1047
60.368
60.205
60.479
60.942
60.1287
60.430
59.9624
59.9835
60.552
60.1335
60.1312
60.656
60.492
60.788
60.1296
60.1440
60.288
59.9347
59.9605
60.362
60.969
60.1106
60.532
60.55
60.26
60.559
60.1222
60.440
59.9333
59.9479
60.262
60.847
60.735
59.9912
59.9619
59.9857
60.190
60.679
60.142
59.9099
59.8905
59.9538
60.367
60.848
60.170
59.9754
60.9
60.530
60.964
60.295
59.9222
59.9176
59.9862
60.469
60.970
60.632
60.173
60.133
60.646
60.1497
60.1155
59.9872
59.9685
60.505
60.1240
60.1524
60.873
60.380
60.354
60.681
60.1247
60.1115
60.48
59.9627
60.174
60.904
60.1443
60.1010
60.444
60.530
60.932
60.1437
60.1101
59.9799
59.9246
59.9787
60.487
60.995
60.747
60.193
59.9934
60.53
60.701
60.981
59.9776
59.9087
59.9635
60.411
60.841
60.358
59.9665
59.9579
59.9795
60.183
60.452
59.9555
59.8795
59.8997
59.9735
60.540
60.542
59.9811
59.9609
60.35
60.621
60.779
59.9685
59.8938
59.9354
60.38
60.639
60.836
60.369
60.18
60.164
60.866
60.1441
60.498
59.9572
59.9962
60.804
60.1315
60.1224
60.531
60.238
60.319
60.730
60.1229
60.683
59.9701
59.9615
60.258
60.1037
60.1344
60.714
60.389
60.592
60.1051
60.1408
60.475
59.9349
59.9311
59.9934
60.542
60.993
60.556
60.56
59.9962
60.314
60.1002
60.584
59.9294
59.9109
59.9868
60.548
60.673
59.9878
59.9416
59.9531
59.9852
60.301
60.188
59.9137
59.8643
59.9127
59.9961
60.677
60.265
59.9665
59.9704
60.155
60.659
60.353
59.9170
59.8840
59.9416
60.76
60.746
60.673
60.108
59.9894
60.224
60.1019
60.1219
59.9948
59.9375
60.62
60.853
60.1300
60.827
60.212
60.64
60.356
60.871
60.1154
60.233
59.9502
59.9795
60.531
60.1263
60.1076
60.312
60.203
60.573
60.1139
60.1266
60.73
59.9181
59.9446
60.168
60.783
60.922
60.403
60.1
59.9983
60.451
60.1038
60.144
59.9117
59.9392
60.236
60.712
60.458
59.9647
59.9412
59.9688
60.134
60.595
59.9933
59.9000
59.8919
59.9561
60.373
60.781
60.53
59.9631
59.9877
60.458
60.924
60.13
59.9020
59.9188
59.9911
60.507
60.919
60.508
60.84
60.89
60.589
60.1349
60.868
59.9644
59.9620
60.498
60.1207
60.1389
60.667
60.197
60.237
60.537
60.1115
60.943
59.9885
59.9537
60.67
60.832
60.1421
60.877
60.373
60.488
60.888
60.1359
60.907
59.9524
59.9130
59.9754
60.430
60.938
60.648
60.88
59.9782
59.9980
60.695
60.874
59.9624
59.9019
59.9624
60.387
60.747
60.209
59.9486
59.9417
59.9715
60.189
60.326
59.9335
59.8629
59.8947
59.9767
60.636
60.501
59.9720
59.9535
59.9946
60.509
60.609
59.9477
59.8793
59.9226
59.9918
60.582
60.757
60.251
59.9969
60.141
60.813
60.1349
60.325
59.9380
59.9853
60.727
60.1249
60.1042
60.346
60.109
60.274
60.668
60.1145
60.516
59.9603
59.9585
60.261
60.1025
60.1180
60.518
60.205
60.430
60.916
60.1299
60.358
59.9217
59.9265
59.9965
60.631
60.978
60.463
59.9915
59.9851
60.139
60.803
60.337
59.9153
59.9026
59.9814
60.479
60.542
59.9710
59.9256
59.9385
59.9759
60.278
60.67
59.9034
59.8662
59.9192
59.9980
60.590
60.66
59.9476
59.9555
60.76
60.631
60.314
59.9158
59.8880
59.9464
60.87
60.701
60.554
60.43
59.9850
60.202
60.977
60.1059
59.9847
59.9345
60.51
60.835
60.1246
60.694
60.94
60.29
60.276
60.868
60.1058
60.80
59.9367
59.9745
60.522
60.1218
60.988
60.268
60.191
60.507
60.986
60.1000
59.9773
59.9091
59.9518
60.175
60.755
60.758
60.129
59.9755
59.9772
60.254
60.777
59.9755
59.8763
59.9068
59.9947
60.471
60.155
59.9342
59.9093
59.9327
59.9780
60.268
59.9600
59.8646
59.8604
59.9178
59.9949
60.274
59.9567
59.9199
59.9451
59.9993
60.387
59.9562
59.8580
59.8747
59.9443
60.92
60.575
60.107
59.9667
59.9653
60.173
60.907
60.367
59.9190
59.9200
60.103
60.748
60.855
60.176
59.9790
59.9838
60.138
60.683
60.496
59.9368
59.8932
59.9513
60.278
60.820
60.290
59.9768
59.9902
60.345
60.794
60.336
59.8997
59.8643
59.9195
59.9843
60.394
60.69
59.9510
59.9251
59.9390
60.37
60.139
59.8882
59.8263
59.8866
59.9626
60.3
59.9409
59.8751
59.8728
59.9027
59.9532
59.9747
59.8769
59.7967
59.8184
59.8955
59.9779
59.9691
59.8912
59.8737
59.9197
59.9760
59.9871
59.8695
59.7983
59.8394
59.9085
59.9710
59.9923
59.9458
59.9132
59.9270
59.9869
60.463
59.9491
59.8530
59.8869
59.9721
60.250
60.113
59.9444
59.9173
59.9258
59.9657
60.196
59.9651
59.8647
59.8576
59.9251
59.9983
60.268
59.9588
59.9225
59.9413
59.9848
60.248
59.9511
59.8290
59.8199
59.8878
59.9512
59.9907
59.9443
59.8966
59.8825
59.9100
59.9785
59.9529
59.8256
59.7961
59.8674
59.9387
59.9580
59.8864
59.8364
59.8456
59.8753
59.9209
59.9131
59.8059
59.7519
59.7931
59.8721
59.9491
59.9125
59.8418
59.8412
59.8925
59.9527
59.9313
59.8141
59.7709
59.8240
59.8904
59.9543
59.9524
59.9035
59.8780
59.8998
59.9704
60.48
59.8911
59.8160
59.8755
59.9573
60.24
59.9687
59.9056
59.8896
59.9129
59.9624
59.9981
59.9180
59.8308
59.8417
59.9150
59.9917
59.9941
59.9237
59.9040
59.9341
59.9810
60.23
59.8937
59.7984
59.8148
59.8862
59.9439
59.9663
59.9075
59.8651
59.8606
59.9009
59.9713
59.9068
59.7872
59.7905
59.8747
59.9370
59.9320
59.8479
59.8127
59.8294
59.8617
59.9106
59.8761
59.7707
59.7398
59.7967
59.8771
59.9431
59.8877
59.8340
59.8420
59.8871
59.9407
59.9005
59.7810
59.7574
59.8208
59.8883
59.9450
59.9241
59.8766
59.8600
59.8969
59.9779
59.9807
59.8598
59.8124
59.8851
59.9655
60.29
59.9442
59.8816
59.8720
59.9067
59.9608
59.9752
59.8768
59.8142
59.8523
59.9284
59.9998
59.9743
59.9056
59.8967
59.9351
59.9852
59.9885
59.8560
59.7727
59.8116
59.8859
59.9508
59.9571
59.8999
59.8618
59.8656
59.9175
59.9697
59.8692
59.7690
59.7979
59.8815
59.9372
59.9109
59.8267
59.8040
59.8302
59.8662
59.9119
59.8514
59.7513
59.7383
59.8055
59.8906
59.9292
59.8614
59.8197
59.8439
59.8994
59.9417
59.8606
59.7569
59.7655
59.8317
59.8929
59.9431
59.9034
59.8554
59.8614
59.9097
59.9930
59.9593
59.8333
59.8136
59.8975
59.9721
59.9979
59.9290
59.8722
59.8807
59.9136
59.9697
59.9642
59.8618
59.8158
59.8602
59.9364
60.17
59.9570
59.8951
59.8937
59.9326
59.9861
59.9633
59.8304
59.7751
59.8292
59.8992
59.9584
59.9387
59.8771
59.8464
59.8582
59.9216
59.9468
59.8327
59.7568
59.8131
59.8914
59.9356
59.8924
59.8215
59.8099
59.8351
59.8756
59.9140
59.8328
59.7443
59.7525
59.8221
59.9046
59.9217
59.8460
59.8161
59.8492
59.9092
59.9415
59.8445
59.7585
59.7846
59.8508
59.9138
59.9487
59.9107
59.8712
59.8730
59.9322
60.70
59.9389
59.8230
59.8376
59.9302
59.9935
59.9976
59.9207
59.8795
59.8925
59.9312
59.9912
59.9594
59.8564
59.8267
59.8868
59.9673
60.129
59.9535
59.9015
59.9180
59.9573
60.36
59.9452
59.8202
59.7966
59.8539
59.9206
59.9721
59.9397
59.8809
59.8588
59.8773
59.9430
59.9398
59.8139
59.7608
59.8259
59.9029
59.9345
59.8667
59.8031
59.8092
59.8408
59.8901
59.9038
59.8032
59.7405
59.7672
59.8406
59.9177
59.9005
59.8272
59.8156
59.8623
59.9204
59.9260
59.8119
59.7448
59.7946
59.8649
59.9212
59.9315
59.8829
59.8519
59.8715
59.9451
60.62
59.9051
59.8079
59.8492
59.9378
59.9862
59.9715
59.9013
59.8792
59.8965
59.9428
59.9927
59.9258
59.8308
59.8281
59.8956
59.9753
60.6
59.9263
59.8861
59.9109
59.9589
59.9946
59.9083
59.7882
59.7879
59.8584
59.9200
59.9673
59.9206
59.8650
59.8487
59.8840
59.9607
59.9254
59.7973
59.7713
59.8468
59.9198
59.9380
59.8584
59.8073
59.8179
59.8472
59.8970
59.8920
59.7921
59.7454
59.7923
59.8686
59.9378
59.8942
59.8275
59.8349
59.8871
59.9394
59.9157
59.8009
59.7633
59.8177
59.8886
59.9492
59.9446
59.8947
59.8741
59.9047
59.9757
60.14
59.8813
59.8161
59.8817
59.9671
60.137
59.9795
59.9135
59.9041
59.9249
59.9676
60.6
59.9164
59.8384
59.8613
59.9354
60.40
59.9994
59.9292
59.9133
59.9475
59.9990
60.160
59.9016
59.8060
59.8315
59.9025
59.9614
59.9811
59.9273
59.8839
59.8800
59.9246
59.9925
59.9202
59.8023
59.8076
59.8871
59.9509
59.9435
59.8659
59.8388
59.8554
59.8873
59.9319
59.8906
59.7914
59.7687
59.8282
59.9094
59.9691
59.9089
59.8528
59.8710
59.9248
59.9709
59.9165
59.8060
59.8004
59.8687
59.9253
59.9813
59.9594
59.9106
59.9007
59.9400
60.210
60.105
59.8885
59.8578
59.9329
60.123
60.485
59.9825
59.9285
59.9325
59.9619
60.130
60.204
59.9178
59.8573
59.9011
59.9789
60.515
60.200
59.9492
59.9392
59.9785
60.335
60.268
59.9043
59.8377
59.8798
59.9519
60.166
60.90
59.9462
59.9108
59.9158
59.9716
60.172
59.9084
59.8178
59.8595
59.9455
60.25
59.9666
59.8881
59.8699
59.8947
59.9384
59.9778
59.9076
59.8143
59.8165
59.8837
59.9680
59.9928
59.9208
59.8864
59.9151
59.9775
60.131
59.9217
59.8295
59.8528
59.9249
59.9839
60.262
59.9868
59.9428
59.9426
60.10
60.867
60.287
59.9039
59.9079
59.9939
60.622
60.759
60.74
59.9708
59.9808
60.137
60.667
60.360
59.9336
59.9078
59.9718
60.440
60.897
60.285
59.9782
59.9922
60.314
60.828
60.349
59.9089
59.8720
59.9276
59.9937
60.487
60.145
59.9561
59.9283
59.9474
60.209
60.220
59.8913
59.8406
59.9054
59.9806
60.161
59.9512
59.8929
59.8940
59.9192
59.9610
59.9708
59.8728
59.8063
59.8319
59.9101
59.9946
59.9797
59.9064
59.8910
59.9292
59.9882
59.9992
59.8892
59.8280
59.8706
59.9346
59.9965
60.101
59.9517
59.9175
59.9385
60.74
60.661
59.9622
59.8674
59.9087
59.9970
60.562
60.359
59.9594
59.9365
59.9569
59.9979
60.485
59.9810
59.8785
59.8731
59.9395
60.195
60.432
59.9723
59.9425
59.9705
60.179
60.485
59.9557
59.8470
59.8464
59.9169
59.9822
60.128
59.9601
59.9132
59.9028
59.9332
60.0
59.9545
59.8352
59.8170
59.8922
59.9573
59.9727
59.8970
59.8515
59.8598
59.8987
59.9451
59.9304
59.8217
59.7697
59.8140
59.8973
59.9695
59.9192
59.8592
59.8688
59.9189
59.9724
59.9410
59.8213
59.7883
59.8497
59.9195
59.9828
59.9646
59.9114
59.8886
59.9255
60.38
60.251
59.8968
59.8335
59.9012
59.9858
60.320
59.9914
59.9262
59.9106
59.9323
59.9812
60.151
59.9261
59.8458
59.8698
59.9436
60.201
60.89
59.9379
59.9172
59.9488
59.9993
60.170
59.8984
59.8074
59.8341
59.9046
59.9665
59.9834
59.9307
59.8824
59.8796
59.9370
60.16
59.9160
59.8016
59.8130
59.8957
59.9525
59.9415
59.8599
59.8267
59.8479
59.8849
59.9323
59.8867
59.7873
59.7680
59.8268
59.9096
59.9568
59.8861
59.8324
59.8523
59.9118
59.9593
59.8925
59.7824
59.7797
59.8452
59.9105
59.9731
59.9449
59.8913
59.8814
59.9197
59.9981
59.9828
59.8526
59.8273
59.9106
59.9818
60.141
59.9557
59.8987
59.8993
59.9247
59.9781
59.9931
59.8925
59.8406
59.8818
59.9517
60.129
59.9760
59.9136
59.9106
59.9501
60.20
59.9934
59.8630
59.7948
59.8471
59.9256
59.9852
59.9744
59.9132
59.8809
59.8880
59.9441
59.9875
59.8783
59.7915
59.8304
59.9092
59.9572
59.9265
59.8551
59.8410
59.8644
59.9039
59.9454
59.8737
59.7804
59.7802
59.8521
59.9379
59.9594
59.8896
59.8586
59.8862
59.9438
59.9744
59.8810
59.7949
59.8188
59.8915
59.9561
59.9946
59.9523
59.9126
59.9129
59.9688
60.449
59.9811
59.8644
59.8705
59.9632
60.342
60.421
59.9700
59.9305
59.9444
59.9818
60.359
60.37
59.8957
59.8628
59.9198
59.9992
60.460
59.9835
59.9354
59.9519
59.9985
60.448
59.9963
59.8690
59.8440
59.9100
59.9712
60.188
59.9825
59.9272
59.9043
59.9262
59.9941
59.9968
59.8700
59.8164
59.8808
59.9593
59.9974
59.9369
59.8692
59.8624
59.8989
59.9453
59.9636
59.8644
59.7873
59.8123
59.8917
59.9727
59.9546
59.8848
59.8764
59.9251
59.9795
59.9922
59.8786
59.8131
59.8530
59.9234
59.9884
60.20
59.9506
59.9242
59.9433
60.80
60.684
59.9677
59.8740
59.9161
60.20
60.577
60.448
59.9755
59.9512
59.9670
60.106
60.633
59.9996
59.9062
59.9090
59.9794
60.529
60.666
59.9973
59.9736
60.39
60.462
60.775
59.9841
59.8779
59.8807
59.9500
60.130
60.449
59.9925
59.9393
59.9323
59.9699
60.411
59.9928
59.8661
59.8520
59.9382
60.75
60.209
59.9416
59.8924
59.9051
59.9452
59.9936
59.9721
59.8688
59.8244
59.8794
59.9581
60.223
59.9730
59.9098
59.9250
59.9807
60.313
59.9965
59.8750
59.8501
59.9113
59.9826
60.433
60.273
59.9730
59.9594
59.9891
60.657
60.801
59.9586
59.9052
59.9770
60.522
60.952
60.510
59.9969
59.9925
60.145
60.604
60.831
59.9889
59.9186
59.9516
60.264
60.959
60.706
60.56
59.9982
60.370
60.874
60.921
59.9692
59.8902
59.9213
59.9884
60.447
60.589
60.50
59.9604
59.9610
60.123
60.663
59.9783
59.8784
59.9081
59.9911
60.425
60.130
59.9347
59.9146
59.9345
59.9697
60.127
59.9467
59.8529
59.8515
59.9165
59.9968
60.349
59.9657
59.9245
59.9529
60.91
60.525
59.9749
59.8721
59.8759
59.9412
60.21
60.519
60.132
59.9682
59.9672
60.184
60.1023
60.601
59.9379
59.9301
60.170
60.858
60.1088
60.404
59.9937
59.9986
60.252
60.807
60.627
59.9590
59.9176
59.9741
60.513
60.1009
60.520
59.9986
60.121
60.543
60.1009
60.559
59.9238
59.8827
59.9446
60.132
60.669
60.379
59.9773
59.9538
59.9699
60.385
60.590
59.9343
59.8677
59.9294
60.60
60.447
59.9876
59.9228
59.9203
59.9447
59.9916
60.119
59.9131
59.8361
59.8611
59.9363
60.207
60.89
59.9339
59.9176
59.9576
60.167
60.308
59.9234
59.8510
59.8887
59.9605
60.231
60.493
59.9938
59.9604
59.9797
60.435
60.1013
60.75
59.9102
59.9398
60.277
60.889
60.785
60.32
59.9700
59.9861
60.290
60.828
60.244
59.9223
59.9147
59.9859
60.652
60.896
60.215
59.9874
60.112
60.566
60.992
60.142
59.8940
59.8878
59.9545
60.124
60.483
60.12
59.9475
59.9388
59.9769
60.464
60.45
59.8803
59.8576
59.9383
60.121
60.283
59.9463
59.8969
59.9088
59.9393
59.9892
59.9721
59.8641
59.8186
59.8688
59.9431
60.104
59.9691
59.9078
59.9172
59.9633
60.134
59.9905
59.8720
59.8312
59.8900
59.9570
60.187
60.149
59.9686
59.9504
59.9756
60.448
60.655
59.9466
59.8898
59.9569
60.368
60.823
60.379
59.9742
59.9583
59.9807
60.321
60.642
59.9681
59.8939
59.9198
59.9929
60.587
60.476
59.9845
59.9712
60.32
60.537
60.691
59.9517
59.8535
59.8816
59.9560
60.177
60.316
59.9792
59.9389
59.9358
59.9808
60.420
59.9598
59.8499
59.8676
59.9477
60.46
59.9883
59.9110
59.8840
59.9088
59.9460
59.9926
59.9366
59.8418
59.8269
59.8823
59.9619
60.127
59.9498
59.9014
59.9234
59.9770
60.225
59.9544
59.8485
59.8504
59.9167
59.9787
60.345
60.52
59.9639
59.9609
60.4
60.802
60.534
59.9253
59.9042
59.9856
60.573
60.820
60.188
59.9666
59.9694
60.37
60.624
60.639
59.9586
59.9093
59.9546
60.311
60.937
60.488
59.9896
59.9944
60.278
60.748
60.533
59.9264
59.8755
59.9277
59.9927
60.474
60.332
59.9768
59.9473
59.9583
60.170
60.504
59.9334
59.8488
59.8934
59.9767
60.228
59.9787
59.9073
59.8949
59.9217
59.9619
59.9943
59.9075
59.8207
59.8359
59.9127
59.9966
60.16
59.9261
59.8968
59.9348
59.9952
60.139
59.9053
59.8220
59.8517
59.9215
59.9871
60.165
59.9745
59.9456
59.9530
60.103
60.773
60.4
59.8912
59.9086
59.9924
60.545
60.505
59.9743
59.9390
59.9526
59.9897
60.467
60.69
59.9075
59.8898
59.9509
60.281
60.684
60.23
59.9559
59.9729
60.158
60.586
59.9886
59.8590
59.8402
59.9141
59.9799
60.278
59.9864
59.9353
59.9195
59.9454
60.173
60.28
59.8743
59.8365
59.9076
59.9806
60.56
59.9294
59.8747
59.8812
59.9103
59.9586
59.9651
59.8658
59.8053
59.8417
59.9182
59.9987
59.9728
59.9009
59.8969
59.9467
59.9982
59.9912
59.8731
59.8190
59.8724
59.9395
60.20
60.103
59.9587
59.9283
59.9506
60.201
60.570
59.9514
59.8812
59.9366
60.194
60.652
60.363
59.9644
59.9437
59.9697
60.154
60.574
59.9801
59.8928
59.9041
59.9732
60.489
60.581
59.9863
59.9641
59.9949
60.416
60.700
59.9688
59.8650
59.8736
59.9449
60.114
60.389
59.9833
59.9405
59.9344
59.9741
60.411
59.9782
59.8567
59.8554
59.9385
60.5
60.5
59.9199
59.8763
59.8914
59.9296
59.9846
59.9483
59.8448
59.8170
59.8771
59.9592
60.170
59.9585
59.9047
59.9213
59.9771
60.258
59.9756
59.8595
59.8433
59.9111
59.9740
60.318
60.82
59.9639
59.9549
59.9929
60.717
60.657
59.9381
59.8961
59.9762
60.573
60.976
60.374
59.9754
59.9686
60.9
60.614
60.736
59.9666
59.9031
59.9453
60.238
60.925
60.672
60.33
60.45
60.437
60.945
60.853
59.9576
59.8873
59.9286
59.9955
60.543
60.568
59.9926
59.9539
59.9628
60.270
60.733
59.9652
59.8708
59.9119
60.21
60.553
60.180
59.9393
59.9266
59.9551
59.9946
60.336
59.9560
59.8651
59.8665
59.9317
60.130
60.394
59.9683
59.9397
59.9751
60.330
60.670
59.9743
59.8840
59.8947
59.9633
60.247
60.687
60.250
59.9859
59.9947
60.509
60.1287
60.654
59.9524
59.9616
60.444
60.1086
60.1169
60.456
60.137
60.233
60.553
60.1078
60.744
59.9748
59.9493
60.63
60.820
60.1339
60.729
60.240
60.363
60.791
60.1302
60.759
59.9461
59.9181
59.9792
60.485
60.1023
60.632
60.56
59.9825
60.60
60.782
60.722
59.9443
59.8914
59.9609
60.360
60.703
60.85
59.9474
59.9529
59.9794
60.226
60.305
59.9325
59.8756
59.9108
59.9812
60.557
60.302
59.9611
59.9549
60.33
60.610
60.586
59.9395
59.8895
59.9375
60.25
60.691
60.784
60.291
59.9943
60.130
60.879
60.1348
60.229
59.9376
59.9961
60.840
60.1322
60.1021
60.308
60.128
60.357
60.842
60.1247
60.450
59.9571
59.9711
60.381
60.1069
60.1130
60.491
60.266
60.530
60.1059
60.1368
60.278
59.9235
59.9372
60.49
60.667
60.898
60.374
59.9933
59.9842
60.252
60.919
60.249
59.9079
59.9102
59.9921
60.513
60.476
59.9687
59.9318
59.9524
59.9906
60.356
59.9899
59.8886
59.8592
59.9175
59.9982
60.572
59.9950
59.9393
59.9553
60.68
60.562
60.58
59.8965
59.8813
59.9426
60.38
60.581
60.361
59.9859
59.9734
60.144
60.946
60.822
59.9549
59.9232
60.32
60.789
60.1111
60.513
59.9957
59.9944
60.179
60.684
60.760
59.9782
59.9191
59.9613
60.403
60.1033
60.670
60.28
60.28
60.448
60.988
60.870
59.9592
59.8846
59.9250
59.9971
60.637
60.510
59.9892
59.9589
59.9701
60.312
60.724
59.9636
59.8721
59.9153
60.20
60.468
60.27
59.9260
59.9097
59.9370
59.9763
60.129
59.9350
59.8459
59.8558
59.9287
60.160
60.330
59.9582
59.9280
59.9644
60.209
60.521
59.9560
59.8603
59.8805
59.9530
60.160
60.533
60.116
59.9723
59.9791
60.349
60.1114
60.463
59.9285
59.9387
60.255
60.947
60.1013
60.286
59.9909
60.13
60.359
60.930
60.616
59.9542
59.9281
59.9935
60.737
60.1162
60.550
60.96
60.249
60.687
60.1119
60.552
59.9287
59.9071
59.9730
60.310
60.793
60.399
59.9841
59.9663
59.9895
60.602
60.516
59.9281
59.8851
59.9532
60.278
60.591
59.9886
59.9340
59.9349
59.9664
60.139
60.256
59.9257
59.8629
59.8980
59.9724
60.487
60.243
59.9521
59.9505
59.9951
60.457
60.432
59.9307
59.8798
59.9256
60.1
60.681
60.745
60.201
59.9879
60.85
60.815
60.1292
60.227
59.9432
59.9931
60.736
60.1259
60.977
60.319
60.128
60.357
60.829
60.1222
60.428
59.9527
59.9604
60.335
60.1108
60.1229
60.499
60.277
60.620
60.1141
60.1387
60.270
59.9272
59.9410
60.102
60.730
60.964
60.415
59.9964
59.9932
60.348
60.1011
60.349
59.9196
59.9233
60.23
60.640
60.632
59.9814
59.9420
59.9566
59.9912
60.417
59.9986
59.8977
59.8720
59.9325
60.161
60.707
60.81
59.9596
59.9752
60.283
60.755
60.188
59.9040
59.8940
59.9645
60.266
60.837
60.544
60.81
59.9995
60.394
60.1199
60.1053
59.9800
59.9477
60.268
60.1028
60.1306
60.685
60.153
60.168
60.474
60.1002
60.1075
60.48
59.9459
59.9850
60.568
60.1254
60.911
60.305
60.333
60.719
60.1190
60.1036
59.9765
59.9104
59.9548
60.240
60.866
60.780
60.193
59.9850
59.9932
60.530
60.870
59.9722
59.8889
59.9305
60.179
60.694
60.288
59.9571
59.9450
59.9709
60.140
60.523
59.9689
59.8828
59.8928
59.9640
60.457
60.539
59.9807
59.9551
59.9895
60.476
60.776
59.9814
59.9009
59.9295
59.9978
60.615
60.965
60.492
60.50
60.107
60.661
60.1381
60.651
59.9554
59.9733
60.619
60.1252
60.1251
60.568
60.308
60.426
60.767
60.1283
60.853
59.9857
59.9646
60.296
60.1057
60.1412
60.744
60.325
60.531
60.981
60.1414
60.724
59.9525
59.9367
60.69
60.673
60.1081
60.634
60.74
59.9935
60.182
60.877
60.668
59.9386
59.9078
59.9798
60.502
60.768
60.37
59.9500
59.9604
59.9876
60.326
60.301
59.9297
59.8750
59.9122
59.9848
60.603
60.334
59.9666
59.9575
60.45
60.588
60.414
59.9242
59.8802
59.9355
60.28
60.656
60.643
60.148
59.9888
60.135
60.864
60.1206
60.60
59.9334
59.9935
60.798
60.1253
60.860
60.215
60.86
60.300
60.709
60.1067
60.201
59.9381
59.9538
60.281
60.1065
60.1055
60.339
60.173
60.538
60.1043
60.1263
60.81
59.9149
59.9428
60.126
60.694
60.873
60.285
59.9866
59.9890
60.327
60.942
60.139
59.9006
59.9179
60.50
60.668
60.599
59.9784
59.9469
59.9679
60.21
60.566
60.74
59.9042
59.8842
59.9444
60.217
60.673
60.42
59.9597
59.9912
60.509
60.956
60.286
59.9210
59.9180
59.9897
60.469
60.991
60.687
60.216
60.164
60.550
60.1320
60.1061
59.9849
59.9728
60.548
60.1285
60.1544
60.882
60.403
60.466
60.775
60.1316
60.1250
60.198
59.9718
60.196
60.925
60.1596
60.1174
60.597
60.600
60.965
60.1518
60.1276
60.26
59.9512
60.74
60.783
60.1332
60.1116
60.537
60.230
60.292
60.918
60.1143
59.9927
59.9274
59.9881
60.653
60.1091
60.577
59.9878
59.9749
60.79
60.531
60.805
59.9940
59.9153
59.9345
59.9997
60.789
60.820
60.57
59.9816
60.230
60.809
60.1006
59.9967
59.9295
59.9642
60.336
60.972
60.1176
60.724
60.353
60.472
60.1184
60.1794
60.834
59.9845
60.167
60.1028
60.1632
60.1606
60.898
60.607
60.784
60.1237
60.1701
60.1032
60.172
60.154
60.761
60.1541
60.1830
60.1094
60.743
60.957
60.1447
60.1785
60.859
59.9770
59.9765
60.435
60.1057
60.1455
60.932
60.423
60.331
60.696
60.1426
60.966
59.9724
59.9563
60.387
60.1069
60.1190
60.394
59.9976
60.85
60.445
60.997
60.770
59.9669
59.9288
59.9790
60.571
60.1227
60.738
60.134
60.177
60.690
60.1232
60.916
59.9746
59.9482
60.105
60.791
60.1443
60.1280
60.670
60.418
60.763
60.1632
60.1780
60.513
59.9978
60.728
60.1546
60.1948
60.1417
60.778
60.776
60.1037
60.1528
60.1720
60.747
60.74
60.434
60.1148
60.1859
60.1621
60.991
60.958
60.1287
60.1755
60.1734
60.527
59.9805
60.221
60.887
60.1451
60.1423
60.831
60.497
60.572
60.1145
60.1620
60.548
59.9614
59.9970
60.797
60.1310
60.943
60.185
60.5
60.222
60.633
60.1061
60.347
59.9437
59.9328
59.9997
60.908
60.1128
60.365
60.61
60.411
60.989
60.1315
60.362
59.9471
59.9675
60.429
60.1051
60.1459
60.1026
60.586
60.574
60.1072
60.1810
60.1183
60.89
60.195
60.1064
60.1727
60.1830
60.1154
60.825
60.912
60.1243
60.1768
60.1325
60.360
60.187
60.792
60.1488
60.1866
60.1285
60.830
60.1016
60.1461
60.1916
60.1259
59.9967
59.9792
60.506
60.1151
60.1642
60.1232
60.627
60.377
60.679
60.1453
60.1298
60.28
59.9625
60.347
60.1143
60.1404
60.702
60.125
60.133
60.458
60.951
60.972
59.9925
59.9362
59.9756
60.530
60.1332
60.1007
60.358
60.351
60.785
60.1314
60.1200
59.9994
59.9574
60.150
60.791
60.1374
60.1336
60.866
60.617
60.867
60.1623
60.1939
60.759
60.49
60.665
60.1532
60.2055
60.1661
60.966
60.735
60.937
60.1428
60.1855
60.1006
60.189
60.457
60.1208
60.1936
60.1813
60.1089
60.981
60.1293
60.1797
60.1921
60.736
59.9843
60.138
60.867
60.1486
60.1636
60.1001
60.527
60.510
60.1027
60.1656
60.766
59.9709
59.9918
60.741
60.1291
60.1088
60.233
59.9973
60.211
60.647
60.1114
60.493
59.9509
59.9406
60.36
60.893
60.1291
60.615
60.157
60.435
60.1032
60.1483
60.744
59.9726
59.9760
60.362
60.969
60.1451
60.1073
60.580
60.566
60.1142
60.1964
60.1567
60.372
60.287
60.1111
60.1773
60.1965
60.1297
60.813
60.835
60.1188
60.1739
60.1529
60.525
60.219
60.780
60.1499
60.1997
60.1441
60.908
60.1047
60.1512
60.1964
60.1435
60.109
59.9759
60.354
60.1012
60.1570
60.1287
60.729
60.435
60.621
60.1361
60.1471
60.238
59.9654
60.262
60.1066
60.1456
60.841
60.214
60.200
60.510
60.936
60.1053
60.39
59.9310
59.9641
60.424
60.1235
60.1115
60.421
60.328
60.722
60.1273
60.1300
60.160
59.9531
59.9954
60.616
60.1260
60.1409
60.977
60.704
60.893
60.1581
60.2053
60.984
60.89
60.612
60.1513
60.2010
60.1701
60.975
60.744
60.924
60.1358
60.1813
60.1109
60.209
60.275
60.978
60.1759
60.1896
60.1165
60.953
60.1238
60.1678
60.1912
60.902
59.9831
59.9956
60.664
60.1205
60.1453
60.971
60.600
60.521
60.888
60.1554
60.937
59.9724
59.9712
60.545
60.1094
60.1039
60.232
59.9842
60.32
60.359
60.843
60.466
59.9448
59.9175
59.9704
60.532
60.1138
60.542
59.9983
60.89
60.559
60.1083
60.564
59.9390
59.9291
59.9963
60.589
60.1121
60.853
60.395
60.236
60.640
60.1463
60.1338
60.94
59.9791
60.584
60.1322
60.1617
60.974
60.414
60.326
60.617
60.1171
60.1286
60.239
59.9619
60.11
60.781
60.1479
60.1123
60.513
60.505
60.870
60.1329
60.1161
59.9874
59.9221
59.9742
60.450
60.1010
60.865
60.267
59.9907
60.12
60.631
60.966
59.9874
59.9073
59.9464
60.282
60.808
60.367
59.9609
59.9434
59.9650
60.76
60.448
59.9623
59.8762
59.8910
59.9627
60.449
60.572
59.9844
59.9541
59.9883
60.489
60.788
59.9792
59.8893
59.9096
59.9838
60.486
60.801
60.373
59.9953
60.13
60.573
60.1319
60.604
59.9509
59.9697
60.609
60.1223
60.1200
60.483
60.185
60.270
60.621
60.1126
60.741
59.9746
59.9523
60.147
60.883
60.1298
60.662
60.236
60.393
60.834
60.1303
60.658
59.9436
59.9252
59.9882
60.491
60.950
60.507
59.9974
59.9782
60.104
60.850
60.706
59.9413
59.9056
59.9776
60.512
60.744
59.9976
59.9434
59.9478
59.9780
60.267
60.313
59.9317
59.8722
59.9038
59.9794
60.608
60.326
59.9660
59.9619
60.86
60.673
60.536
59.9330
59.8818
59.9347
60.30
60.671
60.709
60.188
59.9897
60.178
60.875
60.1246
60.101
59.9424
60.3
60.799
60.1269
60.953
60.262
60.108
60.367
60.870
60.1218
60.321
59.9486
59.9701
60.425
60.1113
60.1067
60.394
60.201
60.553
60.1095
60.1289
60.126
59.9133
59.9363
60.112
60.717
60.934
60.413
59.9971
59.9912
60.351
60.1057
60.296
59.9123
59.9206
60.55
60.682
60.603
59.9773
59.9473
59.9642
60.19
60.465
60.17
59.9068
59.8906
59.9501
60.316
60.793
60.106
59.9569
59.9770
60.301
60.784
60.155
59.9104
59.9070
59.9744
60.380
60.926
60.637
60.205
60.160
60.571
60.1363
60.1076
59.9874
59.9647
60.456
60.1133
60.1409
60.812
60.312
60.321
60.615
60.1194
60.1257
60.230
59.9707
60.215
60.944
60.1522
60.1060
60.498
60.533
60.927
60.1422
60.1187
59.9936
59.9432
59.9951
60.544
60.1106
60.913
60.371
60.48
60.148
60.787
60.1060
59.9907
59.9218
59.9715
60.528
60.941
60.462
59.9742
59.9650
59.9920
60.356
60.647
59.9761
59.8996
59.9158
59.9896
60.753
60.803
60.24
59.9804
60.179
60.777
60.986
59.9929
59.9223
59.9588
60.269
60.863
60.1106
60.690
60.328
60.438
60.1047
60.1667
60.804
59.9791
60.171
60.1047
60.1639
60.1565
60.817
60.502
60.695
60.1082
60.1588
60.1042
60.67
60.15
60.675
60.1395
60.1647
60.999
60.701
60.953
60.1414
60.1762
60.906
59.9764
59.9739
60.428
60.1026
60.1443
60.957
60.451
60.330
60.662
60.1371
60.981
59.9753
59.9590
60.421
60.1078
60.1195
60.394
59.9954
60.39
60.432
60.964
60.818
59.9771
59.9357
59.9869
60.643
60.1285
60.781
60.187
60.299
60.824
60.1388
60.989
59.9749
59.9470
60.98
60.744
60.1358
60.1290
60.799
60.550
60.830
60.1607
60.1811
60.614
60.34
60.739
60.1546
60.1990
60.1537
60.902
60.768
60.1012
60.1499
60.1768
60.818
60.148
60.415
60.1189
60.1895
60.1691
60.1105
60.1056
60.1351
60.1836
60.1848
60.591
59.9819
60.214
60.910
60.1505
60.1511
60.901
60.545
60.561
60.1093
60.1575
60.618
59.9683
60.31
60.862
60.1375
60.1064
60.303
60.93
60.276
60.705
60.1115
60.338
59.9404
59.9480
60.153
60.950
60.1173
60.445
60.140
60.521
60.1092
60.1431
60.446
59.9501
59.9770
60.500
60.1098
60.1465
60.1034
60.637
60.720
60.1220
60.1928
60.1288
60.198
60.327
60.1189
60.1844
60.1911
60.1166
60.767
60.865
60.1220
60.1818
60.1407
60.364
60.138
60.736
60.1519
60.1995
60.1410
60.1012
60.1169
60.1596
60.2026
60.1351
60.90
59.9885
60.596
60.1245
60.1702
60.1291
60.746
60.576
60.839
60.1551
60.1420
60.149
59.9771
60.481
60.1245
60.1536
60.838
60.223
60.317
60.685
60.1151
60.1112
60.80
59.9572
60.42
60.784
60.1528
60.1201
60.570
60.524
60.962
60.1544
60.1365
60.162
59.9765
60.315
60.982
60.1582
60.1551
60.1085
60.857
60.1119
60.1955
60.2224
60.1027
60.306
60.914
60.1751
60.2282
60.1881
60.1182
60.986
60.1220
60.1712
60.2023
60.1180
60.407
60.594
60.1364
60.2112
60.2030
60.1352
60.1194
60.1489
60.1985
60.2093
60.893
59.9986
60.321
60.1021
60.1598
60.1705
60.1162
60.807
60.792
60.1281
60.1878
60.1016
59.9933
60.141
60.929
60.1512
60.1277
60.387
60.114
60.355
60.757
60.1193
60.550
59.9557
59.9504
60.160
60.990
60.1341
60.672
60.316
60.587
60.1102
60.1458
60.687
59.9688
59.9726
60.374
60.985
60.1495
60.1154
60.716
60.709
60.1168
60.1916
60.1459
60.241
60.194
60.1081
60.1809
60.1941
60.1202
60.755
60.818
60.1093
60.1621
60.1469
60.437
60.45
60.558
60.1362
60.1973
60.1406
60.855
60.952
60.1322
60.1808
60.1392
60.87
59.9715
60.279
60.880
60.1450
60.1204
60.635
60.365
60.601
60.1314
60.1425
60.210
59.9629
60.250
60.1011
60.1351
60.721
60.83
60.86
60.372
60.800
60.968
60.34
59.9336
59.9602
60.329
60.1145
60.1025
60.325
60.188
60.609
60.1181
60.1212
60.27
59.9429
59.9865
60.571
60.1247
60.1398
60.895
60.570
60.755
60.1438
60.1926
60.857
59.9978
60.456
60.1337
60.1889
60.1638
60.989
60.775
60.845
60.1267
60.1813
60.1125
60.154
60.204
60.923
60.1737
60.1896
60.1202
60.976
60.1211
60.1711
60.1962
60.911
59.9894
60.55
60.701
60.1272
60.1551
60.1066
60.614
60.559
60.968
60.1654
60.1030
59.9864
59.9882
60.712
60.1333
60.1250
60.374
60.15
60.209
60.556
60.1049
60.659
59.9631
59.9380
59.9996
60.854
60.1401
60.744
60.239
60.481
60.1024
60.1478
60.875
59.9682
59.9553
60.215
60.818
60.1397
60.1141
60.716
60.636
60.1072
60.1852
60.1651
60.366
60.123
60.958
60.1670
60.1994
60.1347
60.820
60.810
60.1086
60.1584
60.1593
60.595
60.60
60.526
60.1254
60.1875
60.1444
60.834
60.827
60.1240
60.1798
60.1602
60.293
59.9716
60.172
60.806
60.1366
60.1176
60.610
60.340
60.457
60.1065
60.1383
60.231
59.9440
59.9947
60.815
60.1321
60.872
60.114
59.9965
60.173
60.585
60.940
60.52
59.9248
59.9399
60.94
60.928
60.980
60.254
60.48
60.427
60.1019
60.1274
60.202
59.9394
59.9794
60.482
60.1102
60.1397
60.921
60.528
60.611
60.1256
60.1946
60.1105
60.29
60.322
60.1263
60.1864
60.1783
60.1020
60.750
60.922
60.1363
60.1858
60.1244
60.272
60.225
60.912
60.1657
60.1897
60.1256
60.907
60.1143
60.1580
60.1990
60.1200
60.44
59.9964
60.658
60.1278
60.1676
60.1191
60.651
60.497
60.816
60.1509
60.1115
59.9857
59.9693
60.460
60.1169
60.1351
60.596
60.115
60.250
60.574
60.1031
60.887
59.9798
59.9330
59.9842
60.600
60.1291
60.801
60.208
60.274
60.771
60.1330
60.959
59.9817
59.9538
60.195
60.916
60.1471
60.1298
60.775
60.575
60.879
60.1639
60.1697
60.441
59.9992
60.759
60.1575
60.1951
60.1414
60.805
60.766
60.1035
60.1575
60.1832
60.829
60.51
60.321
60.1055
60.1784
60.1555
60.897
60.817
60.1186
60.1703
60.1791
60.554
59.9778
60.148
60.842
60.1372
60.1363
60.780
60.395
60.435
60.1029
60.1534
60.518
59.9542
59.9851
60.655
60.1184
60.882
60.131
59.9965
60.185
60.564
60.914
60.168
59.9241
59.9232
59.9912
60.767
60.1044
60.276
59.9918
60.249
60.849
60.1220
60.318
59.9343
59.9513
60.211
60.829
60.1224
60.825
60.419
60.412
60.956
60.1751
60.1156
59.9921
59.9963
60.856
60.1495
60.1554
60.910
60.538
60.578
60.910
60.1477
60.1247
60.255
59.9938
60.439
60.1118
60.1629
60.1057
60.618
60.754
60.1131
60.1572
60.964
59.9695
59.9450
60.74
60.718
60.1260
60.946
60.473
60.219
60.424
60.1081
60.1013
59.9767
59.9310
59.9991
60.685
60.1000
60.359
59.9787
59.9808
60.102
60.529
60.643
59.9642
59.9002
59.9364
60.125
60.925
60.673
59.9961
59.9881
60.304
60.844
60.850
59.9716
59.9206
59.9729
60.499
60.1265
60.1444
60.1033
60.834
60.1155
60.2060
60.2587
60.1518
60.814
60.1489
60.2443
60.2973
60.2636
60.2004
60.1968
60.2277
60.2849
60.3323
60.2559
60.1875
60.2193
60.3013
60.3869
60.3843
60.3153
60.3116
60.3596
60.4227
60.4541
60.3459
60.2632
60.3149
60.4064
60.4821
60.5011
60.4537
60.4366
60.4603
60.5295
60.6045
60.5192
60.4368
60.4982
60.6099
60.6854
60.6630
60.5943
60.6089
60.6639
60.7345
60.8030
60.7426
60.6830
60.7353
60.8358
60.9521
60.9715
60.9173
60.9427
61.292
61.1195
61.1624
61.681
61.394
61.1288
61.2364
61.3428
61.3758
61.3605
61.3903
61.4627
61.5889
61.6270
61.5247
61.5343
61.6794
61.8049
61.8827
61.8439
61.8402
61.8975
61.9796
62.1000
62.1117
62.473
62.918
62.2166
62.3502
62.4132
62.3814
62.4223
62.5223
62.6414
62.7114
62.6200
62.6074
62.7262
62.8588
62.9883
63.48
63.132
63.715
63.1684
63.3113
63.3164
63.2450
63.3309
63.4993
63.6344
63.6706
63.6457
63.7206
63.8179
63.9431
64.287
63.9815
64.187
64.1517
64.3206
64.4486
64.4347
64.4818
64.6052
64.7510
64.8576
64.7941
64.8263
64.9752
65.1345
65.2857
65.3222
65.3844
65.4812
65.6337
65.7736
65.7234
65.7586
65.9444
66.1300
66.2387
66.2302
66.3017
66.4153
66.5641
66.6958
66.6765
66.7356
66.8949
67.857
67.1997
67.2121
67.3206
67.4668
67.6293
67.6733
67.6319
67.7464
67.9255
68.1152
68.2034
68.2669
68.3639
68.4992
68.6889
68.6911
68.7181
68.8934
69.929
69.2287
69.2453
69.3520
69.4835
69.6555
69.7616
69.7669
69.8808
70.697
70.2881
70.3523
70.4218
70.5764
70.7630
70.8860
70.8641
70.9786
71.1669
71.3793
71.5104
71.6063
71.7282
71.9077
72.889
72.848
72.1993
72.4241
72.6392
72.7148
72.7979
72.9408
73.1156
73.2994
73.3276
73.4418
73.6307
73.8582
73.9480
74.623
74.2336
74.4343
74.5348
74.5405
74.6962
74.9122
75.1324
75.2358
75.3606
75.5003
75.7162
75.7750
75.8580
76.757
76.3163
76.4301
76.5181
76.6752
76.8734
77.502
77.1018
77.2371
77.4520
77.6824
77.7714
77.9253
78.1237
78.3253
78.3564
78.4877
78.7022
78.9519
79.1010
79.2464
79.4012
79.6436
79.7243
79.8308
80.764
80.3366
80.4520
80.5802
80.7459
80.9851
81.1092
81.2207
81.4194
81.6737
81.8081
81.9699
82.1744
82.4080
82.4611
82.5739
82.7924
83.639
83.2268
83.3812
83.5470
83.7721
83.8467
84.242
84.2900
84.5034
84.6141
84.7877
85.49
85.2018
85.3066
85.4884
85.7567
85.9443
86.1070
86.3131
86.5511
86.6302
86.7848
87.240
87.2962
87.4802
87.6524
87.8854
88.566
88.1754
88.4284
88.7152
88.8690
89.398
89.2369
89.4783
89.6078
89.8038
90.744
90.2717
90.4666
90.6900
90.9218
91.31
91.1848
91.4560
91.7073
91.9049
92.739
92.3183
92.4335
92.6504
92.9423
93.1316
93.3089
93.5083
93.7592
93.8988
94.860
94.3678
94.5818
94.7807
95.179
95.2270
95.3444
95.5634
95.8614
96.1018
96.3001
96.5447
96.7254
96.8920
97.1829
97.4583
97.6480
97.8394
98.1089
98.2854
98.4886
98.7679
98.9915
99.2180
99.4779
99.6749
99.8125
100.554
100.3619
100.6032
100.7959
101.449
101.1887
101.4296
101.7371
101.9372
102.1462
102.3959
102.6037
102.7970
103.615
103.3180
103.5439
103.8034
104.48
104.1663
104.4220
104.7308
104.9850
105.2067
105.4492
105.6186
105.9112
106.2097
106.4352
106.6523
106.9252
107.1213
107.3647
107.6560
107.9002
108.1652
108.4156
108.5660
108.8153
109.1413
109.4100
109.6207
109.8578
110.457
110.3435
110.6181
110.8516
111.935
111.3356
111.5357
111.8091
112.847
112.3388
112.6160
112.7874
113.8
113.3094
113.6164
113.8574
114.1256
114.3036
114.5940
114.9132
115.1689
115.4061
115.6744
115.9051
116.1937
116.4721
116.7467
117.387
117.2133
117.4491
117.7851
118.898
118.3307
118.5589
118.7855
119.1165
119.3820
119.6194
119.8948
120.1099
120.3622
120.6698
120.9448
121.2283
121.4242
121.6473
121.9690
122.2872
122.5440
122.7913
123.184
123.3563
123.6506
123.9046
124.1935
124.4388
124.7313
125.348
125.3378
125.6388
125.8278
126.906
126.4441
126.7498
127.225
127.2306
127.5359
127.8549
128.1266
128.4080
128.6444
128.8961
129.2099
129.5012
129.7963
129.9973
130.2471
130.5847
130.8916
131.1782
131.3870
131.6969
132.278
132.3092
132.5994
132.8530
133.1503
133.4715
133.7922
134.877
134.2950
134.6038
134.9712
135.2657
135.5231
135.7824
136.1317
136.4360
136.7198
136.9851
137.2379
137.5617
137.8730
138.1721
138.3758
138.6512
139.58
139.3043
139.5746
139.8190
140.1678
140.4875
140.7707
141.428
141.3284
141.6552
141.9854
142.2965
142.5157
142.8321
143.2101
143.5150
143.7634
144.669
144.4154
144.7212
145.157
145.2727
145.5848
145.9115
146.2270
146.4590
146.7169
147.710
147.3885
147.6642
147.9249
148.2734
148.6022
148.8923
149.1672
149.4753
149.8121
150.1473
150.4035
150.6606
151.329
151.3712
151.6490
151.9301
152.2699
152.5995
152.8869
153.1638
153.4716
153.6494
154.5610
154.2364
154.7027
154.6347
155.1735
155.1610
155.4632
155.6452
155.8641
156.911
156.1051
156.4480
156.3715
156.7751
156.5390
157.349
156.8069
157.2987
156.9320
157.4476
157.1489
157.6310
157.3286
157.7320
157.5244
157.7904
157.6583
157.7652
157.8493
157.8710
157.9868
157.7854
158.921
157.9111
158.2523
157.8631
158.2783
157.9421
158.3930
157.9018
158.3385
158.430
158.4579
158.630
158.3557
158.2019
158.4067
158.3148
158.3391
158.3923
158.2766
158.4232
158.1489
158.4632
158.1707
158.5220
158.286
158.4663
158.1097
158.5576
158.693
158.4635
158.1297
158.4921
158.1656
158.3706
158.3007
158.3938
158.3560
158.2718
158.4326
158.2497
158.5007
158.1586
158.5085
158.1241
158.5066
157.9671
158.4076
158.343
158.4625
157.9701
158.3193
158.638
158.3132
158.1411
158.2296
158.2218
158.1809
158.2710
158.78
158.3196
158.986
158.4011
157.9119
158.3453
157.9361
158.3989
157.9125
158.3390
157.9128
158.2759
157.8948
158.1117
158.115
158.1427
158.522
157.9431
158.1086
157.9217
158.1796
157.8192
158.1875
157.8088
158.2280
157.6749
158.1439
157.7611
158.2009
157.7093
158.728
157.8156
158.812
157.9037
157.9321
157.9604
157.8889
157.9903
157.7015
158.90
157.6751
158.382
157.4928
157.9720
157.5592
158.307
157.5225
157.9467
157.5624
157.8991
157.6083
157.7447
157.7423
157.8110
157.8026
157.6043
157.8534
157.5886
157.9232
157.4567
157.8910
157.4402
157.8928
157.3195
157.7761
157.3838
157.7856
157.3655
157.5955
157.4976
157.6047
157.5836
157.4718
157.6405
157.4308
157.6983
157.2607
157.6982
157.2816
157.7376
157.1549
157.6573
157.2521
157.7126
157.2621
157.5801
157.3459
157.4914
157.3730
157.2912
157.4612
157.2828
157.5131
157.700
157.5059
157.1185
157.5787
157.296
157.5184
157.320
157.5041
157.157
157.3677
157.1899
157.3871
157.2313
157.1831
157.3369
157.2226
157.4318
157.578
157.4297
156.9887
157.4253
156.8342
157.3414
156.8743
157.3418
156.8121
157.1667
156.9694
157.1718
157.542
157.134
157.1309
156.9714
157.2007
156.7808
157.2241
156.8555
157.2973
156.6804
157.2086
156.7402
157.2368
156.7400
157.882
156.8473
157.217
156.8821
156.8042
156.9806
156.7893
157.286
156.5561
157.244
156.5867
157.832
156.4826
157.32
156.5226
156.9993
156.5306
156.8343
156.7139
156.8960
156.7676
156.6320
156.8636
156.6782
156.9654
156.4908
156.9404
156.4463
156.9353
156.2734
156.7827
156.3656
156.8057
156.3340
156.5440
156.4850
156.5718
156.5732
156.3554
156.6174
156.3040
156.6769
156.1032
156.6390
156.1916
156.7013
156.466
156.5372
156.1785
156.5737
156.2605
156.3789
156.3547
156.2972
156.3984
156.318
156.4317
156.608
156.4876
155.8188
156.3824
155.9182
156.4349
155.8937
156.2844
156.225
156.2425
156.1041
156.411
156.2402
156.617
156.3079
155.8343
156.3252
155.8664
156.3870
155.7609
156.2905
155.8013
156.2476
155.8029
156.691
155.9695
156.508
156.285
155.7872
156.1034
155.7999
156.1937
155.6319
156.1586
155.6376
156.1819
155.5704
156.443
155.7534
156.782
155.8071
155.8613
155.9598
155.8661
156.648
155.6811
156.885
155.6313
156.1016
155.4608
156.47
155.5428
156.359
155.4973
155.7919
155.6792
155.8092
155.7874
155.6159
155.8638
155.5598
155.9334
155.4021
155.9364
155.4611
155.9790
155.3395
155.8418
155.4854
155.8578
155.5850
155.6490
155.6909
155.5704
155.7463
155.3533
155.7852
155.3628
155.8333
155.1550
155.7187
155.2634
155.7542
155.2952
155.5896
155.4403
155.5398
155.5372
155.3587
155.6583
155.3726
155.7255
155.1387
155.6958
155.2010
155.7515
155.1515
155.6095
155.2573
155.5521
155.3211
155.3506
155.4588
155.3159
155.5264
155.308
155.5311
155.828
155.6071
154.9894
155.5249
155.516
155.5193
155.1050
155.3051
155.2997
155.3292
155.3804
155.870
155.4646
155.1106
155.5558
154.9611
155.4953
154.9364
155.4494
154.8979
155.2812
155.860
155.2774
155.1501
155.13
155.2608
154.9972
155.3595
154.8321
155.3480
154.8348
155.3819
154.7460
155.2435
154.9339
155.2727
154.9970
155.430
155.1570
155.569
155.2740
154.8428
155.2808
154.7704
155.2831
154.6462
155.1910
154.7537
155.2066
154.7648
154.9352
154.9420
154.9456
155.589
154.7772
155.1263
154.6943
155.1750
154.5376
155.1195
154.6651
155.1730
154.6353
154.9854
154.8320
154.9664
154.9565
154.7739
155.397
154.7154
155.832
154.4547
155.177
154.5339
155.705
154.4470
154.8821
154.6350
154.8660
154.7532
154.6897
154.8660
154.6427
154.9564
154.3972
154.9512
154.4907
155.217
154.3769
154.8940
154.5278
154.8782
154.6480
154.6922
154.7669
154.6178
154.8298
154.3369
154.8360
154.3769
154.9003
154.2041
154.7465
154.3502
154.7649
154.4511
154.6124
154.5985
154.5069
154.6928
154.3102
154.7698
154.3642
154.8404
154.1498
154.7267
154.2826
154.7721
154.3573
154.5902
154.4980
154.4688
154.5692
154.2695
154.6496
154.2163
154.6911
154.479
154.6248
154.1347
154.6338
154.1732
154.4611
154.3458
154.4386
154.4567
154.1580
154.5534
154.2118
154.6440
153.9962
154.5806
154.791
154.6141
154.1140
154.4830
154.2585
154.3424
154.3343
154.1528
154.4493
154.830
154.5004
153.8895
154.4635
153.9443
154.4759
153.9448
154.3370
154.1204
154.3007
154.2339
154.396
154.3657
154.944
154.4592
153.8224
154.4114
153.9313
154.4844
153.8940
154.2932
154.486
154.2380
154.1344
153.9665
154.2504
153.9606
154.3303
153.7028
154.2812
153.7837
154.3352
153.7637
154.1852
153.9248
154.1318
154.439
153.9098
154.1873
153.9083
154.2736
153.6973
154.2644
153.7327
154.2909
153.7292
154.1779
153.8641
154.464
153.9416
153.8256
154.795
153.7821
154.1492
153.5395
154.1114
153.6030
154.1572
153.5936
154.268
153.7498
153.9534
153.8699
153.7354
154.232
153.7422
154.1095
153.5165
154.945
153.5745
154.1351
153.5613
153.9815
153.7145
153.8999
153.8035
153.6323
153.9239
153.6341
154.80
153.3615
153.9473
153.4714
154.163
153.4300
153.8218
153.6157
153.8207
153.7360
153.5321
153.8708
153.5949
153.9715
153.3266
153.9172
153.4217
153.9741
153.4154
153.7926
153.5825
153.6902
153.6662
153.4609
153.7829
153.4002
153.8437
153.2007
153.7879
153.2785
153.8060
153.3198
153.6432
153.4964
153.5919
153.6200
153.3190
153.7311
153.3973
153.8337
153.1420
153.7379
153.2705
153.7944
153.3097
153.5828
153.4872
153.4894
153.5696
153.2432
153.6526
153.2086
153.7078
153.214
153.6044
153.1528
153.6344
153.2397
153.4210
153.4153
153.4011
153.5392
153.1217
153.6070
153.1785
153.6862
153.213
153.5948
153.1367
153.5649
153.2683
153.4127
153.4236
153.2690
153.4959
153.157
153.5272
153.755
153.6041
152.8891
153.4264
153.741
153.4218
153.2057
153.2596
153.3616
153.1292
153.4615
152.9329
153.4886
153.65
153.5538
152.8883
153.3820
153.1028
153.4060
153.2432
153.1600
153.3666
153.453
153.4205
152.8257
153.3955
152.8835
153.4292
152.8044
153.2096
153.451
153.2194
153.1830
152.9939
153.2893
152.8914
153.3666
152.7321
153.3265
152.8522
153.3730
152.8453
153.1515
153.799
153.1561
153.2268
152.9233
153.2955
152.8148
153.3174
152.6431
153.2215
152.7814
153.2577
152.8184
152.9729
153.267
152.9409
153.1564
152.7532
153.2133
152.6920
153.2473
152.5762
153.1285
152.7882
153.1732
152.8709
152.9060
153.553
152.8517
153.1816
152.6576
153.1841
152.6414
153.1841
152.5281
153.0
152.7489
152.9654
152.8420
152.6745
152.9845
152.6953
153.1029
152.4867
153.565
152.5001
153.508
152.5357
152.8760
152.7906
152.8902
152.8977
152.5830
153.12
152.5821
153.952
152.4586
153.205
152.4930
152.9613
152.5549
152.7212
152.7650
152.6649
152.8615
152.3734
152.8991
152.4445
152.9909
152.3241
152.8499
152.4602
152.7952
152.6059
152.5680
152.7979
152.6027
152.9058
152.3292
152.9042
152.3617
152.9388
152.3683
152.7818
152.5418
152.7096
152.6459
152.4272
152.7743
152.3891
152.8460
152.1625
152.7689
152.2796
152.7833
152.3640
152.6199
152.5531
152.5324
152.6914
152.2873
152.7740
152.3070
152.8395
152.1572
152.7261
152.3330
152.7522
152.4735
152.5072
152.6224
152.3800
152.7015
152.1351
152.6978
152.1812
152.7361
152.886
152.5294
152.3309
152.5458
152.4801
152.2834
152.5896
152.1964
152.6815
152.246
152.6312
152.1693
152.6762
152.1837
152.4424
152.4191
152.4210
152.5711
152.1620
152.6175
152.983
152.6407
151.9462
152.4937
152.1305
152.4992
152.2220
152.1940
152.4063
152.2103
152.5446
151.9819
152.5318
151.9614
152.5400
151.9571
152.3783
152.2245
152.3717
152.3319
152.695
152.4673
152.1107
152.5853
151.9233
152.4975
151.9565
152.4371
152.354
152.2082
152.2482
152.1347
152.3494
151.8529
152.3963
151.8991
152.4613
151.8240
152.3368
151.9828
152.2975
152.1322
152.458
152.3164
152.193
152.4107
151.7832
152.3922
151.8617
152.4166
151.9124
152.2247
152.1040
152.1227
152.2110
151.8399
152.2953
151.8717
152.3802
151.6490
152.2252
151.8260
152.2482
151.9702
152.147
152.1390
151.9166
152.2625
151.6949
152.2775
151.7660
152.3249
151.7065
152.1406
151.9605
152.1246
152.1151
151.8738
152.2212
151.8087
152.2815
151.5889
152.1742
151.7167
152.1995
151.7758
151.9312
152.29
151.8880
152.1420
151.6600
152.1814
151.6290
152.2168
151.5724
152.720
151.8260
152.596
151.9460
151.7825
152.1100
151.7722
152.2215
151.5734
152.1614
151.6231
152.1378
151.6534
151.8683
151.8842
151.8683
152.29
151.5235
152.449
151.5815
152.1363
151.4727
152.16
151.6229
151.9470
151.7768
151.6968
151.9644
151.6642
152.645
151.4378
152.495
151.5037
152.537
151.5659
151.8607
151.7693
151.7396
151.8725
151.4651
151.9483
151.4548
152.32
151.2968
151.8548
151.4978
151.8291
151.6627
151.6125
151.8224
151.5148
151.9323
151.3111
151.9218
151.4124
151.9533
151.4117
151.7332
151.6693
151.7047
151.8307
151.4514
151.9013
151.3802
151.9233
151.2290
151.7852
151.4222
151.7746
151.5342
151.4777
151.7219
151.4414
151.8430
151.2428
151.8282
151.2652
151.8302
151.3111
151.6362
151.5848
151.6204
151.7101
151.3223
151.8102
151.3374
151.8925
151.2130
151.7649
151.3510
151.6930
151.4712
151.4117
151.6503
151.3685
151.7508
151.987
151.7123
151.1864
151.7383
151.2434
151.5550
151.4599
151.4625
151.6078
151.2082
151.7077
151.2336
151.7804
151.841
151.6519
151.2847
151.6270
151.4580
151.3923
151.6066
151.2680
151.6769
151.531
151.6500
151.1146
151.6501
151.1333
151.4299
151.3874
151.3758
151.5431
151.1506
151.6189
151.999
151.6744
150.9931
151.5344
151.2312
151.5502
151.3598
151.2434
151.5419
151.2391
151.6695
151.227
151.6101
151.626
151.5801
151.1058
151.3021
151.3444
151.2744
151.4654
150.9475
151.5054
150.9926
151.5694
150.9313
151.4244
151.1294
151.3521
151.2939
151.1092
151.4633
151.834
151.5536
150.8885
151.5045
150.9977
151.4988
151.1226
151.2865
151.3134
151.1571
151.4162
150.8592
151.4272
150.9089
151.4734
150.8105
151.2410
151.908
151.2257
151.2555
150.9705
151.3666
150.8989
151.4465
150.7687
151.3676
150.9427
151.3566
151.587
151.1204
151.2817
151.690
151.4231
150.8497
151.4153
150.8307
151.3887
150.8219
151.1490
151.874
151.1181
151.2146
150.7962
151.3019
150.8151
151.3826
150.7241
151.2744
150.8836
151.2151
151.561
150.9855
151.2592
150.9561
151.3661
150.7014
151.3260
150.8150
151.3567
150.9032
151.1156
151.1086
151.11
151.2207
150.7227
151.2660
150.7410
151.3153
150.6440
151.1397
150.8925
151.1039
151.653
150.8598
151.1967
150.7608
151.2836
150.5900
151.2017
150.7757
151.2220
150.8796
150.9500
151.1130
150.9121
151.2543
150.6894
151.2560
150.6784
151.2441
150.6512
151.158
150.9138
150.9750
151.428
150.6298
151.1370
150.6505
151.2168
150.5503
151.1029
150.7128
151.450
150.8855
150.8069
151.877
150.7877
151.1976
150.5082
151.1414
150.6409
151.1734
150.7441
150.9297
150.9454
150.8201
151.623
150.5695
151.1048
150.5706
151.1394
150.4636
150.9177
150.7407
150.8926
150.9128
150.6315
151.264
150.5616
151.1114
150.4321
151.267
150.6110
151.277
150.7336
150.7362
150.9544
150.6938
151.866
150.4636
151.592
150.4850
151.280
150.5150
150.8119
150.7740
150.7537
150.9012
150.4012
150.9591
150.4413
151.247
150.3798
150.8809
150.5928
150.8101
150.7637
150.5619
150.9376
150.5582
151.323
150.3047
150.9265
150.4817
150.9395
150.6400
150.6894
150.8235
150.5821
150.9217
150.3019
150.9017
150.3719
150.9332
150.3635
150.6751
150.6382
150.6409
150.8099
150.4208
150.8973
150.3582
150.9399
150.2510
150.7786
150.5353
150.7819
150.6808
150.4953
150.8519
150.4665
150.9638
150.3065
150.9000
150.3654
150.8133
150.4804
150.5431
150.7089
150.4993
150.8272
150.2257
150.8269
150.2770
150.8475
150.3221
150.6556
150.5631
150.5641
150.7263
150.3275
150.8363
150.3498
150.9071
150.2019
150.7418
150.4518
150.7153
150.6392
150.4596
150.7781
150.3576
150.8415
150.1410
150.7489
150.2856
150.7423
150.3894
150.4453
150.6225
150.4129
150.7678
150.2057
150.7769
150.1844
150.7623
150.2409
150.5693
150.5355
150.5366
150.6729
150.2666
150.7725
150.2571
150.8406
150.1672
150.6743
150.3668
150.5779
150.5046
150.3156
150.6653
150.2617
150.7497
150.42
150.6236
150.1935
150.6371
150.3645
150.4215
150.5572
150.3066
150.6918
150.505
150.6775
150.1763
150.7276
150.1950
150.5101
150.4679
150.4600
150.6434
150.1674
150.6912
150.1219
150.7025
150.481
150.5369
150.2926
150.4886
150.4362
150.1287
150.5708
150.1369
150.6793
150.151
150.5979
150.1261
150.5321
150.3020
150.2525
150.5274
150.2475
150.6454
150.53
150.6323
150.971
150.6398
150.1907
150.3870
150.4108
150.2772
150.5290
150.90
150.5695
150.182
150.5959
149.9511
150.3793
150.2421
150.3509
150.4192
150.844
150.5255
150.57
150.5885
149.9039
150.4785
150.1485
150.4749
150.2972
150.1586
150.4879
150.1263
150.6139
149.9499
150.5513
150.167
150.5036
150.1197
150.1971
150.3599
150.1619
150.4832
149.8773
150.4892
149.9419
150.5087
149.9828
150.3027
150.2282
150.2255
150.3999
149.9512
150.4910
149.9830
150.5561
149.8699
150.3935
150.1419
150.3705
150.3290
150.861
150.4545
149.9677
150.4989
149.8145
150.4091
149.9747
150.3791
150.1003
150.291
150.3110
150.171
150.4539
149.8277
150.4241
149.8453
150.3756
149.9774
150.1736
150.2521
150.1361
150.3836
149.8121
150.4205
149.8730
150.4689
149.8882
150.2941
150.1128
150.1513
150.2490
149.8380
150.3436
149.8521
150.4157
149.6830
150.2160
149.9575
150.1986
150.1391
149.9574
150.2884
149.8519
150.3838
149.6720
150.2886
149.8760
150.3058
150.80
150.163
150.2356
149.9517
150.3766
149.7562
150.3549
149.7819
150.3168
149.8377
150.287
150.995
149.9902
150.2364
149.6589
150.2601
149.7173
150.3040
149.7268
150.1431
149.9660
150.368
150.1460
149.7423
150.2602
149.7818
150.3414
149.6348
150.1882
149.8908
150.1423
150.807
149.8913
150.2222
149.7777
150.2841
149.5573
150.1642
149.7421
150.1702
149.8690
149.8248
150.939
149.8038
150.2324
149.6238
150.2247
149.6403
150.1763
149.7706
149.9662
150.506
149.9397
150.1913
149.6107
150.2251
149.6816
150.2789
149.7051
150.1060
149.9358
149.9432
150.752
149.6735
150.1768
149.6750
150.2373
149.5045
150.296
149.7985
150.247
149.9821
149.7400
150.1231
149.6597
150.2123
149.5310
150.1376
149.7269
150.1185
149.8675
149.8115
150.924
149.7925
150.2339
149.5584
150.1716
149.6194
150.1223
149.7226
149.8619
149.9729
149.7796
150.1017
149.5137
150.1188
149.5570
150.1324
149.6135
149.9345
149.8655
149.8604
150.374
149.5435
150.1171
149.6130
150.1930
149.5279
150.306
149.7964
149.9471
149.9908
149.6973
150.1101
149.6142
150.1571
149.4225
149.9952
149.6591
149.9883
149.8001
149.6235
149.9869
149.6129
150.1122
149.4500
150.533
149.5242
149.9844
149.7017
149.7710
149.9591
149.7266
150.829
149.4216
150.642
149.5411
150.1070
149.6282
149.8363
149.8565
149.7260
149.9839
149.4286
150.174
149.4677
150.476
149.4315
149.8415
149.7244
149.7490
149.9024
149.5175
150.40
149.4643
150.587
149.3678
149.8916
149.6714
149.8905
149.8230
149.5453
149.9838
149.5359
150.930
149.4233
150.72
149.5323
149.8675
149.6948
149.6293
149.8984
149.5253
149.9920
149.2976
149.9353
149.4397
149.9259
149.5951
149.6690
149.8171
149.5990
149.9678
149.3160
149.9556
149.4464
150.38
149.4911
149.7681
149.7745
149.6796
149.9450
149.4577
150.6
149.3886
149.9729
149.3596
149.7771
149.6404
149.7150
149.7930
149.3602
149.8868
149.3989
149.9768
149.2863
149.8020
149.5286
149.7562
149.7143
149.4323
149.8791
149.4517
149.9838
149.2726
149.8827
149.4688
149.8329
149.6720
149.6071
149.8459
149.4391
149.9178
149.2454
149.8623
149.3688
149.8470
149.4780
149.5374
149.7312
149.5141
149.8851
149.2451
149.8614
149.3130
149.8851
149.3995
149.6131
149.6965
149.6048
149.8489
149.3055
149.9021
149.3331
149.9351
149.3678
149.7760
149.6007
149.5943
149.7439
149.3554
149.8538
149.2986
149.8822
149.1972
149.7162
149.4782
149.6622
149.6668
149.3756
149.7994
149.3334
149.8964
149.1627
149.7476
149.4292
149.7661
149.5874
149.4280
149.7841
149.4036
149.9106
149.2332
149.8357
149.3075
149.7401
149.4599
149.4698
149.6853
149.3818
149.7984
149.1387
149.7734
149.2255
149.7472
149.3734
149.5664
149.6025
149.4039
149.7553
149.1928
149.8024
149.2701
149.8366
149.2601
149.5868
149.5646
149.5687
149.7532
149.2479
149.7954
149.2398
149.8233
149.1470
149.5750
149.4522
149.5699
149.6079
149.1813
149.7058
149.2228
149.8074
149.1209
149.6518
149.3525
149.5806
149.5390
149.2892
149.7219
149.2906
149.8198
149.1157
149.7319
149.3031
149.6650
149.5043
149.4463
149.6864
149.2657
149.7519
149.860
149.7037
149.1991
149.6576
149.3276
149.3854
149.5695
149.2843
149.7071
149.993
149.7097
149.1358
149.6845
149.2479
149.4417
149.5433
149.4387
149.6922
149.832
149.7061
149.1857
149.7844
149.2075
149.5223
149.4557
149.4399
149.6042
149.895
149.6577
149.1461
149.7322
149.367
149.4795
149.3533
149.4725
149.5476
149.1701
149.6542
149.1327
149.7284
149.249
149.5711
149.3313
149.5623
149.4897
149.2522
149.6679
149.2105
149.7667
149.1025
149.6895
149.2142
149.5450
149.3803
149.2918
149.5931
149.1995
149.6857
148.9889
149.6193
149.1225
149.5758
149.3166
149.3856
149.5287
149.2040
149.6562
149.441
149.6727
149.1363
149.6603
149.2251
149.4205
149.4978
149.3431
149.6681
149.914
149.6797
149.900
149.6573
149.990
149.4079
149.3897
149.3515
149.5466
149.160
149.5958
149.543
149.6514
149.433
149.4670
149.3044
149.3894
149.4902
149.708
149.6089
149.1438
149.7085
148.9813
149.5104
149.2740
149.5120
149.4767
149.1761
149.6041
149.1332
149.6735
148.9175
149.4935
149.1744
149.5143
149.3283
149.1296
149.5163
149.1442
149.6488
148.9367
149.5510
149.907
149.5359
149.2668
149.2147
149.5115
149.2291
149.6515
148.9418
149.5912
149.874
149.6131
149.2434
149.3394
149.4601
149.2188
149.5742
148.9265
149.5534
149.245
149.5827
149.676
149.2775
149.3517
149.2454
149.5284
148.9762
149.5617
148.9823
149.5848
149.70
149.3558
149.3335
149.3421
149.4902
149.42
149.5711
149.363
149.6444
149.37
149.4625
149.2450
149.3349
149.3948
149.131
149.5142
149.126
149.5873
148.8575
149.3947
149.1405
149.3699
149.3434
149.831
149.4870
149.115
149.5793
148.8590
149.4584
149.1195
149.4562
149.2786
149.1332
149.4812
149.970
149.6091
148.9190
149.5268
149.181
149.4461
149.1684
149.1319
149.3968
149.954
149.5219
148.7971
149.4446
148.9522
149.4680
149.1077
149.2045
149.3375
149.1127
149.4894
148.8393
149.4848
148.9762
149.5312
149.268
149.2484
149.3175
149.2167
149.5000
148.9280
149.5093
148.9257
149.5119
148.9238
149.2455
149.2200
149.2210
149.3756
148.8396
149.4273
148.9202
149.5152
148.8641
149.2935
149.1359
149.2506
149.3306
148.9053
149.4424
148.9793
149.5486
148.8161
149.3466
149.1157
149.3517
149.3242
149.118
149.4412
148.9664
149.5128
148.7685
149.3414
149.220
149.3364
149.1795
148.9714
149.3671
148.9552
149.4888
148.7980
149.4043
148.9451
149.3478
149.1430
149.829
149.3774
149.519
149.5083
148.8076
149.4494
148.9497
149.4402
149.1279
149.1807
149.3360
149.340
149.4425
148.8095
149.4250
148.8718
149.3939
148.9659
149.1430
149.2398
149.315
149.3980
148.8565
149.4387
148.8166
149.3985
148.9181
149.2148
149.2318
149.1352
149.3806
148.8715
149.4574
148.8655
149.4725
148.9206
149.3277
149.1568
149.1226
149.3000
148.8495
149.3955
148.8470
149.4390
148.7551
149.2187
149.664
149.1826
149.2655
148.8936
149.3737
148.8478
149.4500
148.7460
149.2820
149.556
149.2804
149.2181
148.9323
149.3831
148.9365
149.4972
148.7742
149.3503
148.9610
149.2893
149.1239
148.9237
149.3122
148.9424
149.4312
148.6585
149.2863
148.8827
149.3003
149.780
149.172
149.2748
148.9170
149.4058
148.7202
149.3588
148.8926
149.3721
149.146
149.785
149.2732
149.80
149.4279
148.7984
149.4075
148.8147
149.3340
148.9232
149.988
149.1939
148.9830
149.3260
148.7123
149.3375
148.7682
149.3399
148.8807
149.1587
149.1288
149.32
149.2966
148.7491
149.3594
148.8197
149.4027
148.8089
149.1820
149.1161
149.1171
149.3059
148.8354
149.3720
148.7967
149.3864
148.7174
149.1524
149.252
149.1342
149.1890
148.7475
149.2866
148.7879
149.3784
148.6964
149.2119
148.9527
149.1427
149.1488
148.8415
149.3104
148.8434
149.4022
148.6879
149.2749
148.9351
149.2087
149.1454
148.9620
149.3039
148.8045
149.3486
148.6501
149.2517
148.8422
149.1823
149.27
148.8730
149.2126
148.8165
149.3302
148.6494
149.2663
148.7685
149.2150
148.9605
148.9222
149.2113
148.9180
149.3442
148.6299
149.2852
148.7957
149.3195
148.9479
149.75
149.1670
148.9286
149.2889
148.6094
149.2423
148.7278
149.2697
148.7979
148.9783
149.764
148.8808
149.2376
148.6836
149.2758
148.6549
149.2363
148.7606
149.470
149.704
148.9653
149.2223
148.6809
149.2860
148.7138
149.3195
148.7566
149.1209
149.146
148.9830
149.1587
148.6547
149.2285
148.7148
149.3027
148.6052
149.374
148.9309
149.295
149.1323
148.7229
149.2295
148.6866
149.2985
148.6212
149.1364
148.9301
149.947
149.1034
148.8010
149.2632
148.7415
149.3389
148.6807
149.2411
148.8593
149.684
149.289
148.7908
149.2040
148.7417
149.2910
148.5431
149.1432
148.7885
149.1326
148.9973
148.8326
149.1759
148.7841
149.3002
148.5542
149.1856
148.8026
149.2382
148.9499
148.8801
149.1795
148.8610
149.3294
148.6365
149.2596
148.7295
149.1920
148.8685
148.9196
149.1142
148.8088
149.2342
148.5707
149.2158
148.6712
149.1850
148.8352
148.9857
149.792
148.8489
149.2305
148.6005
149.2433
148.7264
149.2864
148.7897
149.137
149.806
148.9824
149.2681
148.6842
149.2785
148.7112
149.2924
148.6987
149.87
149.68
148.9797
149.1657
148.6312
149.2173
148.6533
149.2547
148.6826
149.1082
148.9410
148.9467
149.1297
148.7129
149.2561
148.7097
149.3002
148.6388
149.1357
148.9399
149.617
149.1402
148.7890
149.2569
148.7020
149.2814
148.5695
149.948
148.8628
149.867
149.248
148.6984
149.1705
148.7177
149.2824
148.5748
149.1478
148.7895
149.781
148.9893
148.8039
149.1950
148.7608
149.2905
148.5861
149.2086
148.7741
149.1351
148.9896
148.9163
149.1728
148.7238
149.2384
148.5387
149.1627
148.7104
149.1433
148.8521
148.7950
149.861
148.7881
149.2394
148.5462
149.1747
148.6621
149.1718
148.8208
148.8805
149.951
148.8648
149.2392
148.5787
149.2267
148.6740
149.2150
148.8263
149.95
149.540
148.8088
149.1714
148.5651
149.1858
148.6258
149.1859
148.6801
148.9043
148.9768
148.8712
149.1546
148.5829
149.1798
148.6203
149.2227
148.6451
148.9666
148.9755
148.9749
149.1445
148.6159
149.2112
148.6663
149.2776
148.6673
149.781
148.9203
148.9243
149.806
148.6507
149.1805
148.6146
149.2133
148.5412
149.182
148.8561
148.9690
149.514
148.6753
149.1651
148.6494
149.2507
148.5375
149.669
148.8567
149.814
149.274
148.7154
149.1883
148.7399
149.3066
148.5801
149.1437
148.7840
149.524
148.9523
148.7473
149.1306
148.6638
149.2083
148.4834
149.979
148.7030
149.373
148.9089
148.7844
149.971
148.6848
149.2105
148.4836
149.1179
148.7101
149.1447
148.8575
148.7982
149.943
148.7892
149.2449
148.5392
149.1656
148.6351
149.1033
148.7810
148.8256
149.222
148.7022
149.1379
148.4597
149.1095
148.5791
149.930
148.7402
148.8543
148.9792
148.7548
149.1393
148.4826
149.1302
148.6314
149.1820
148.6887
148.8881
148.9849
148.8553
149.1622
148.5708
149.1696
148.5662
149.1392
148.6220
148.9164
148.9127
148.7955
149.610
148.4976
149.1126
148.5527
149.1491
148.5961
148.9464
148.8686
148.8659
149.632
148.5500
149.1405
148.6465
149.2350
148.5542
148.9920
148.8775
148.9678
149.859
148.6659
149.1693
148.5918
149.1902
148.5249
149.177
148.8074
148.9228
148.9766
148.6082
149.1193
148.6066
149.1952
148.5178
149.541
148.7636
148.9933
148.9674
148.6670
149.1351
148.7103
149.2546
148.5000
149.931
148.7678
149.969
148.9759
148.7745
149.1323
148.6681
149.2048
148.4952
149.956
148.6843
149.322
148.8502
148.7175
149.640
148.6698
149.1825
148.4927
149.1151
148.6319
149.784
148.8213
148.7660
149.702
148.7839
149.2089
148.4851
149.1373
148.6517
149.1559
148.8213
148.8723
149.391
148.7252
149.1428
148.4895
149.1190
148.5761
149.924
148.6867
148.8019
148.9589
148.7441
149.1197
148.4961
149.1183
148.5605
149.1341
148.6574
148.8498
148.9655
148.8641
149.1255
148.5148
149.1450
148.5924
149.1821
148.6624
148.9709
148.9192
148.8014
149.578
148.5273
149.1172
148.5441
149.1323
148.5346
148.8976
148.8507
148.8479
149.422
148.5530
149.1109
148.5617
149.1718
148.5099
148.9450
148.8545
148.9531
149.242
148.5968
149.1335
148.5892
149.1993
148.5582
149.535
148.7844
148.8896
148.9530
148.5870
149.839
148.5726
149.1510
148.4193
148.9601
148.7209
148.9507
148.9229
148.6188
149.603
148.5790
149.1625
148.4445
149.245
148.7186
148.9900
148.8934
148.7088
149.903
148.6156
149.1809
148.5108
149.1079
148.6476
148.9697
148.8217
148.6624
149.203
148.6371
149.1388
148.3775
149.92
148.5987
149.151
148.7889
148.7241
148.9967
148.6265
149.1289
148.4424
149.781
148.5975
149.503
148.7636
148.8074
149.157
148.6915
149.1515
148.4980
149.1260
148.5642
149.661
148.6844
148.7595
148.9480
148.7331
149.897
148.3988
149.452
148.5164
149.537
148.6588
148.8479
148.9026
148.6800
149.623
148.4609
149.927
148.5511
149.1124
148.6153
148.8606
148.9087
148.8014
149.904
148.5131
149.1095
148.5360
149.1174
148.5279
148.8371
148.8330
148.7731
148.9929
148.4639
149.570
148.4730
149.684
148.5186
148.9168
148.7869
148.7733
148.9775
148.4988
149.758
148.5581
149.1469
148.4788
148.9350
148.8028
148.9190
149.48
148.5812
149.927
148.5377
149.1296
148.4453
148.9444
148.7281
148.8507
148.8992
148.5382
149.423
148.5252
149.1163
148.4378
148.9757
148.6868
148.9153
148.8899
148.5859
149.610
148.6394
149.1793
148.4276
149.213
148.6970
149.38
148.9150
148.7189
149.693
148.5805
149.1317
148.4297
149.304
148.6341
148.9745
148.8026
148.6436
149.104
148.6294
149.1437
148.4378
149.573
148.5966
149.401
148.7907
148.7245
149.352
148.7404
149.1808
148.4641
149.1117
148.6180
149.1009
148.8102
148.8661
149.247
148.6791
149.1182
148.4592
149.937
148.5720
149.823
148.6821
148.7732
148.9563
148.7502
149.1245
148.4800
149.1075
148.5574
149.1270
148.6650
148.8551
148.9721
148.8439
149.1321
148.5331
149.1571
148.5842
149.1770
148.6841
148.9897
148.9332
148.7904
149.673
148.5262
149.1246
148.5660
149.1531
148.5486
148.8930
148.8675
148.8681
149.601
148.5612
149.1226
148.5699
149.1810
148.5361
148.9671
148.8710
148.9420
149.446
148.6282
149.1602
148.5993
149.2138
148.5879
149.882
148.8133
148.9012
148.9737
148.6071
149.1076
148.5982
149.1792
148.4440
148.9820
148.7443
148.9710
148.9512
148.6477
149.847
148.6027
149.1859
148.4686
149.484
148.7434
149.213
148.9207
148.7293
149.1091
148.6392
149.2081
148.5453
149.1388
148.6688
148.9933
148.8420
148.6911
149.473
148.6609
149.1585
148.4003
149.310
148.6163
149.418
148.8114
148.7463
149.119
148.6476
149.1452
148.4614
149.1016
148.6258
149.802
148.7742
148.8277
149.329
148.7153
149.1717
148.5378
149.1577
148.5733
149.745
148.7001
148.7845
148.9688
148.7611
149.1143
148.4234
149.723
148.5518
149.1029
148.6829
148.8730
148.9363
148.7427
149.999
148.5261
149.1450
148.5881
149.1604
148.6534
148.9501
148.9529
148.8414
149.1338
148.6101
149.1876
148.5790
149.1617
148.5774
148.9104
148.8916
148.8948
149.552
148.5151
149.1069
148.5742
149.1771
148.5679
148.9931
148.8392
148.8705
149.316
148.6186
149.1532
148.6093
149.2077
148.5544
149.623
148.8419
148.9588
149.488
148.7107
149.1734
148.6127
149.1943
148.4838
149.96
148.7772
149.36
148.9438
148.6128
149.882
148.6230
149.1970
148.5054
149.795
148.7209
148.9872
148.9226
148.7256
149.1264
148.6780
149.2202
148.5215
149.1424
148.7227
149.753
148.9358
148.8249
149.1224
148.6878
149.1921
148.4693
149.908
148.6616
149.968
148.8103
148.7332
149.407
148.7210
149.1867
148.5042
149.1302
148.6037
149.836
148.7873
148.8433
149.508
148.7606
149.1826
148.5372
149.1786
148.6163
149.1454
148.7884
148.9153
149.163
148.7648
149.1315
148.4792
149.1101
148.5946
149.1526
148.6425
148.8227
148.9322
148.7839
149.1085
148.5344
149.1336
148.5309
149.1197
148.6190
148.9223
148.9383
148.8442
149.980
148.5644
149.1660
148.5860
149.1934
148.6324
148.9914
148.8953
148.8701
149.422
148.5299
149.1093
148.6009
149.1884
148.4922
148.9214
148.8199
148.8750
149.243
148.6324
149.1259
148.5341
149.1571
148.5187
149.235
148.8301
148.9479
148.9990
148.6469
149.1503
148.6309
149.2288
148.5486
149.801
148.7759
148.9830
148.9373
148.6146
149.802
148.6434
149.1906
148.4258
149.64
148.6929
148.9616
148.9032
148.7265
149.711
148.5765
149.1504
148.4544
149.657
148.6924
149.377
148.8616
148.7216
149.773
148.6888
149.2089
148.4979
149.1110
148.6335
149.584
148.7893
148.7157
149.140
148.6757
149.1366
148.4230
149.649
148.5702
149.289
148.7684
148.8266
148.9893
148.6540
149.1240
148.4569
149.1093
148.6126
149.1228
148.7329
148.8374
149.138
148.8092
149.1808
148.5309
149.1560
148.5986
149.1498
148.6684
148.8499
148.9474
148.7859
149.978
148.4989
149.1202
148.5381
149.1122
148.6459
148.9477
148.9097
148.7859
149.822
148.5307
149.1451
148.6119
149.1992
148.6026
148.9551
148.9165
148.9273
149.1127
148.6076
149.1623
148.6032
149.1945
148.5300
148.9518
148.8412
148.8877
149.51
148.5716
149.1121
148.5485
149.1477
148.5359
149.338
148.7838
148.8874
148.9804
148.6127
149.1283
148.6339
149.2102
148.4948
149.410
148.7941
149.267
148.9992
148.6976
149.1328
148.6441
149.2000
148.4646
149.326
148.7188
148.9806
148.8872
148.6785
149.760
148.6005
149.1633
148.4971
149.949
148.6595
149.12
148.8657
148.7178
149.901
148.7146
149.2109
148.4749
149.1157
148.6833
149.1306
148.8737
148.8033
149.711
148.7237
149.1779
148.4675
149.905
148.6014
149.663
148.7540
148.7879
149.5
148.6778
149.1333
148.4977
149.1234
148.5622
149.864
148.7186
148.8136
149.55
148.8022
149.1557
148.4915
149.1401
148.6182
149.1892
148.7273
148.9036
148.9685
148.7911
149.1085
148.5155
149.1183
148.5457
149.1162
148.6008
148.8766
148.9051
148.7925
149.789
148.5450
149.1308
148.5513
149.1604
148.5806
148.9223
148.9138
148.9189
149.824
148.5698
149.1626
148.6429
149.2466
148.5966
149.164
148.8691
148.9125
149.305
148.6091
149.1273
148.5700
149.1744
148.5022
148.9979
148.8011
148.9138
149.37
148.6571
149.1278
148.5923
149.1993
148.4982
149.378
148.8137
149.367
148.9839
148.6841
149.1477
148.7024
149.2649
148.5410
149.1125
148.7532
149.345
148.9202
148.7201
149.984
148.6397
149.1860
148.4655
149.838
148.6832
149.220
148.8894
148.7794
149.862
148.6758
149.2015
148.4853
149.1215
148.7065
149.1437
148.8612
148.8200
149.1045
148.8080
149.2628
148.5606
149.1837
148.6678
149.1639
148.8014
148.8520
149.499
148.7751
149.1868
148.5293
149.1664
148.6134
149.1390
148.7816
148.9600
149.308
148.7982
149.1842
148.5764
149.2178
148.6844
149.2425
148.7489
148.9899
149.435
148.9423
149.2306
148.6619
149.2565
148.6806
149.2599
148.6683
148.9831
148.9792
148.9742
149.1448
148.6024
149.1984
148.6565
149.2569
148.6614
149.863
148.9286
148.9515
149.1249
148.7211
149.2537
148.7084
149.3012
148.6477
149.1595
148.9359
149.631
149.1452
148.8301
149.2741
148.7072
149.2907
148.5949
149.1346
148.8760
149.965
149.395
148.7382
149.1966
148.7594
149.3141
148.5979
149.1787
148.8128
149.1512
149.108
148.8132
149.2176
148.8500
149.3457
148.6003
149.2321
148.8153
149.2246
149.177
148.9445
149.2052
148.8034
149.2886
148.6027
149.2257
148.7314
149.1781
148.8865
148.9017
149.1330
148.8150
149.2686
148.6284
149.2546
148.6954
149.2209
148.8539
148.9544
149.1391
148.9380
149.2889
148.6347
149.2817
148.7543
149.3276
148.8537
149.463
149.993
148.9725
149.2393
148.6242
149.2411
148.7166
149.2966
148.7085
149.209
149.182
148.9464
149.2043
148.7246
149.2770
148.6666
149.2791
148.7048
149.1214
149.253
149.384
149.1932
148.7772
149.3171
148.7472
149.3599
148.7396
149.2272
148.9754
149.605
149.1359
148.7616
149.2632
148.7595
149.3450
148.6163
149.1548
148.9106
149.1382
149.1175
148.8370
149.2639
148.8061
149.3740
148.6304
149.2209
148.9225
149.2655
149.893
148.8968
149.2860
148.9067
149.4277
148.7061
149.3132
148.8604
149.2644
149.166
148.9404
149.2320
148.8784
149.3500
148.6452
149.2846
148.7903
149.2483
148.9823
149.533
149.2042
148.8816
149.3396
148.7142
149.3516
148.8171
149.3327
148.9345
149.1110
149.2139
149.25
149.3745
148.8121
149.4026
148.7718
149.3340
148.8559
149.984
149.1459
149.339
149.2934
148.6995
149.3201
148.7839
149.3788
148.8200
149.1636
149.867
149.832
149.2745
148.7691
149.3561
148.8553
149.4423
148.7657
149.2120
149.791
149.2058
149.2875
148.8694
149.3697
148.8504
149.4299
148.6998
149.2094
149.5
149.2072
149.1670
148.8393
149.3106
148.8302
149.4086
148.7297
149.3007
148.9367
149.2127
149.1395
148.9570
149.3450
148.9192
149.4456
148.7468
149.3708
148.9321
149.3124
149.1481
149.867
149.3397
148.9260
149.4181
148.7440
149.3653
148.8695
149.3206
149.229
149.619
149.2704
148.9549
149.4091
148.8070
149.4187
148.8255
149.3560
148.9872
149.1395
149.2812
149.796
149.4218
148.8181
149.4483
148.8771
149.4547
148.9863
149.2669
149.2314
149.862
149.3589
148.8040
149.4046
148.8570
149.4425
148.8321
149.1821
149.1436
149.1499
149.3409
148.8747
149.4136
148.8519
149.4639
148.8134
149.2713
149.1470
149.2600
149.3071
148.9111
149.4375
148.9470
149.5400
148.8441
149.3652
149.737
149.2836
149.2336
148.9289
149.3802
148.9421
149.4795
148.7145
149.3062
148.9794
149.3185
149.1864
149.25
149.3528
148.9556
149.4773
148.7406
149.3699
148.9807
149.4106
149.1269
149.602
149.3590
149.622
149.5174
148.8115
149.4337
148.9158
149.4038
149.408
149.958
149.2920
149.420
149.4258
148.7555
149.3950
148.8587
149.3966
149.16
149.1965
149.2448
149.491
149.4008
148.8361
149.4555
148.9093
149.4775
148.9357
149.2598
149.2327
149.1648
149.4254
148.9406
149.4813
148.8638
149.4567
148.8597
149.2790
149.1567
149.1658
149.3082
148.8783
149.4190
148.8618
149.4667
148.8499
149.3520
149.808
149.1975
149.2850
148.9767
149.4495
148.9419
149.5164
148.8324
149.4093
149.781
149.3231
149.2900
149.1097
149.4462
148.9311
149.4859
148.7979
149.3976
148.9949
149.3341
149.1544
149.323
149.3692
148.9797
149.4904
148.8305
149.4456
148.9244
149.3737
149.1192
149.1284
149.3805
149.864
149.5057
148.8431
149.4908
148.9509
149.4786
149.1139
149.2684
149.3409
149.895
149.4531
148.8380
149.4609
148.9114
149.4730
148.9647
149.1971
149.2585
149.1539
149.4399
148.9036
149.4852
148.9026
149.5083
148.9319
149.2926
149.2618
149.2736
149.4259
148.9577
149.5209
148.9785
149.5873
148.9613
149.4339
149.1925
149.2781
149.3510
148.9821
149.4788
148.9695
149.5441
148.8192
149.3668
149.1111
149.3381
149.3117
149.655
149.4627
148.9865
149.5544
148.8379
149.4411
149.1016
149.4438
149.2642
149.1304
149.4741
149.1000
149.6121
148.9309
149.5385
149.167
149.4454
149.1746
149.1613
149.4118
149.1060
149.5331
148.8280
149.4777
148.9750
149.4940
149.1343
149.2656
149.3676
149.1412
149.5207
148.8960
149.5378
149.218
149.5805
149.686
149.3346
149.3602
149.2638
149.5475
149.485
149.5980
148.9713
149.5591
148.9800
149.3605
149.2855
149.2859
149.4331
148.9615
149.5251
148.9802
149.5789
148.9629
149.4489
149.2000
149.3106
149.3941
149.621
149.5541
149.554
149.6247
148.9300
149.4987
149.1825
149.4293
149.3916
149.2085
149.5435
149.288
149.5805
148.8895
149.4911
149.855
149.4320
149.2417
149.1331
149.4555
149.645
149.5745
148.9363
149.5467
149.18
149.4570
149.1967
149.2436
149.4591
149.1692
149.5852
148.9534
149.5868
149.208
149.5567
149.1843
149.3693
149.4099
149.1775
149.5242
148.9579
149.5580
148.9796
149.5470
149.279
149.3360
149.3205
149.2183
149.4975
149.356
149.5806
148.9639
149.5735
148.9986
149.4353
149.3195
149.3602
149.4813
149.803
149.6008
149.608
149.6672
149.157
149.5231
149.2460
149.4050
149.4021
149.953
149.5442
149.686
149.6275
148.8914
149.4706
149.1394
149.4264
149.3515
149.1772
149.5178
149.766
149.6158
148.9054
149.5313
149.1353
149.5548
149.2790
149.2081
149.5054
149.2059
149.6616
148.9617
149.5809
149.621
149.5532
149.1732
149.2301
149.4293
149.2214
149.5694
148.8731
149.5165
149.104
149.5664
149.1201
149.3134
149.3666
149.2433
149.5381
148.9415
149.5697
149.681
149.6433
149.396
149.3718
149.3495
149.3649
149.5521
149.520
149.5997
149.394
149.6252
148.9508
149.3831
149.2668
149.3840
149.4282
148.9939
149.5285
149.539
149.6371
148.9448
149.4668
149.1911
149.4203
149.3859
149.953
149.5592
149.1363
149.6750
148.9330
149.5338
149.1691
149.5265
149.3848
149.2540
149.5530
149.1267
149.6267
148.9137
149.5408
149.978
149.5338
149.2309
149.2003
149.4698
149.1737
149.6239
148.9844
149.6016
149.369
149.5628
149.1913
149.3305
149.4826
149.2889
149.6218
149.333
149.6543
149.760
149.6580
149.1838
149.4873
149.4203
149.2923
149.5531
149.541
149.6246
149.494
149.6381
149.273
149.4460
149.3200
149.3398
149.5165
149.1389
149.6254
149.367
149.6507
149.112
149.5316
149.3055
149.4755
149.4731
149.1728
149.6261
149.1457
149.7240
149.270
149.5929
149.2142
149.5074
149.3703
149.1756
149.5526
149.1648
149.6663
148.9100
149.5326
149.1197
149.5378
149.3150
149.2582
149.5127
149.1950
149.6511
148.9393
149.5860
149.1374
149.6426
149.2410
149.3143
149.4988
149.3047
149.6747
149.287
149.6445
149.805
149.6316
149.1366
149.3383
149.4233
149.3183
149.5714
148.9611
149.5839
149.560
149.6493
149.868
149.4365
149.3548
149.3550
149.5373
149.559
149.6311
149.1192
149.7039
149.376
149.5197
149.3352
149.4625
149.5380
149.2242
149.6600
149.984
149.6761
148.9869
149.5403
149.2493
149.4844
149.4092
149.1876
149.5841
149.1216
149.6787
149.337
149.6345
149.1617
149.5223
149.3629
149.3126
149.6007
149.2469
149.7161
149.342
149.6745
149.1705
149.6614
149.3445
149.4069
149.5615
149.3044
149.6776
149.137
149.6387
149.1319
149.6832
149.1833
149.3701
149.4675
149.3562
149.6411
149.608
149.6638
149.1160
149.7150
149.1261
149.4519
149.4566
149.4708
149.6199
149.1247
149.6995
149.1674
149.7746
149.1372
149.5962
149.3819
149.4753
149.5296
149.1598
149.6550
149.1596
149.7364
149.120
149.5594
149.2803
149.5151
149.4822
149.2953
149.6450
149.1557
149.7225
149.459
149.6572
149.2546
149.6254
149.4192
149.3627
149.6397
149.2721
149.7692
149.1074
149.7213
149.1802
149.6539
149.3127
149.3701
149.5596
149.3260
149.6935
149.124
149.6544
149.1406
149.6949
149.2486
149.4435
149.4963
149.3838
149.6702
149.757
149.6974
149.1909
149.7717
149.1735
149.5231
149.4778
149.4905
149.6737
149.2163
149.7430
149.1612
149.7505
149.934
149.5548
149.3866
149.5031
149.5444
149.1846
149.6736
149.1636
149.7508
149.1072
149.6662
149.3008
149.5433
149.4948
149.3181
149.7002
149.2675
149.7940
149.966
149.7172
149.2770
149.6847
149.4829
149.4253
149.6753
149.3398
149.7731
149.559
149.6906
149.2285
149.7348
149.3296
149.3896
149.5847
149.3883
149.7542
149.1275
149.7457
149.1913
149.7614
149.2761
149.5117
149.5906
149.5001
149.7443
149.2107
149.8003
149.2315
149.8387
149.2741
149.6903
149.5160
149.5135
149.6577
149.2555
149.7689
149.2311
149.8191
149.1280
149.6431
149.4100
149.5932
149.6096
149.3249
149.7496
149.2831
149.8484
149.1129
149.7017
149.3916
149.7325
149.5568
149.3957
149.7554
149.3803
149.8910
149.2191
149.8267
149.3036
149.7323
149.4519
149.4726
149.6920
149.3963
149.8112
149.1576
149.7896
149.2433
149.7720
149.3938
149.5935
149.6375
149.4638
149.7894
149.2085
149.8288
149.3265
149.9020
149.3038
149.6385
149.6090
149.6206
149.8017
149.3251
149.8652
149.2942
149.8828
149.2187
149.6737
149.5093
149.6340
149.6708
149.3194
149.8009
149.2902
149.8750
149.2315
149.7968
149.4182
149.6756
149.6110
149.4351
149.8146
149.4336
149.9267
149.1886
149.8184
149.3945
149.8423
149.5827
149.5333
149.7724
149.4437
149.8754
149.1790
149.8078
149.3146
149.8277
149.4122
149.5250
149.6761
149.4754
149.8344
149.2813
149.8671
149.2584
149.8371
149.3431
149.6634
149.6520
149.6051
149.8057
149.3027
149.8816
149.3552
149.9512
149.3138
149.7420
149.5642
149.6580
149.7149
149.3027
149.8155
149.3319
149.9080
149.1769
149.7181
149.4635
149.6913
149.6555
149.4593
149.8185
149.3372
149.9007
149.2302
149.8445
149.4336
149.8165
149.5901
149.5359
149.8177
149.5082
149.9608
149.2740
149.8954
149.3713
149.8709
149.4753
149.5514
149.7325
149.5276
149.8707
149.2119
149.8482
149.3151
149.8850
149.4100
149.6997
149.6597
149.5547
149.8296
149.3498
149.9188
149.3796
149.9620
149.3284
149.7618
149.6155
149.7091
149.7952
149.3823
149.8731
149.3473
149.9154
149.1918
149.6959
149.4666
149.6869
149.6195
149.3305
149.7686
149.3199
149.8633
149.2056
149.7899
149.3456
149.6985
149.5398
149.4731
149.7616
149.4309
149.8775
149.1958
149.8251
149.3402
149.8360
149.4974
149.5688
149.7132
149.4779
149.8248
149.1962
149.7982
149.2866
149.8318
149.3346
149.5893
149.6108
149.5082
149.7765
149.3138
149.8478
149.2816
149.8621
149.2777
149.6860
149.5887
149.6856
149.7501
149.3551
149.8571
149.3846
149.9523
149.3186
149.8279
149.4995
149.6931
149.6522
149.4527
149.8170
149.3854
149.8948
149.2206
149.7983
149.4026
149.7772
149.5937
149.5356
149.7779
149.4743
149.9131
149.2641
149.8622
149.4172
149.8955
149.5331
149.6876
149.7788
149.5977
149.9346
149.4074
149.9515
149.4167
149.9478
149.4201
149.6963
149.6910
149.6798
149.8430
149.3755
149.9004
149.4141
149.9694
149.4086
149.8579
149.6273
149.7527
149.8109
149.5254
149.9528
149.5518
150.591
149.3960
149.9282
149.6073
149.9201
149.8070
149.7220
149.9667
149.5836
150.273
149.4129
149.9686
149.5457
149.9867
149.6511
149.6872
149.8683
149.6744
150.267
149.4979
150.328
149.5081
150.235
149.5972
149.8608
149.8679
149.8394
150.207
149.5603
150.728
149.6042
150.1470
149.6028
150.164
149.8039
149.8881
149.9400
149.6526
150.515
149.6443
150.1385
149.4829
149.9789
149.6975
149.9847
149.8878
149.7935
150.477
149.6941
150.1433
149.5578
150.1030
149.7090
150.1375
149.8265
149.8899
150.389
149.8558
150.1938
149.6987
150.2005
149.6894
150.1726
149.7139
149.9575
149.9559
149.9371
150.1034
149.6708
150.1430
149.6856
150.2020
149.6852
150.1013
149.8887
150.396
150.558
149.7875
150.1776
149.8145
150.2878
149.7037
150.2074
149.8543
150.1834
150.380
149.9738
150.1861
149.8852
150.2626
149.7058
150.2169
149.7949
150.2281
149.8853
150.36
150.964
149.9830
150.2527
149.8050
150.2788
149.7975
150.2964
149.8285
150.1522
150.854
150.1554
150.2440
149.9100
150.3229
149.9097
150.4017
149.8682
150.3079
150.124
150.2446
150.1496
149.9774
150.2741
149.9615
150.3822
149.8168
150.3087
149.9264
150.3122
150.794
150.1271
150.2499
150.552
150.3748
149.9036
150.3931
149.9880
150.4501
150.64
150.2520
150.2285
150.2274
150.4008
150.592
150.4538
150.154
150.4756
149.9313
150.3146
150.1293
150.2988
150.2734
150.782
150.3893
150.688
150.4949
149.9660
150.4295
150.560
150.3991
150.2114
150.2212
150.4001
150.2183
150.5294
150.549
150.5265
150.1023
150.5504
150.1827
150.4024
150.3632
150.3141
150.4754
150.1294
150.5288
150.1304
150.5856
150.534
150.4225
150.2597
150.4187
150.4321
150.2625
150.5467
150.2235
150.6352
150.1021
150.5564
150.2479
150.5964
150.3835
150.4006
150.5507
150.3737
150.6868
150.2512
150.6892
150.2561
150.6763
150.2668
150.4821
150.4628
150.4604
150.6006
150.2568
150.6452
150.2652
150.7132
150.2548
150.6454
150.3994
150.6008
150.5507
150.3923
150.6735
150.4093
150.7945
150.2929
150.7371
150.3784
150.7448
150.5256
150.6166
150.6807
150.5336
150.7634
150.3332
150.7495
150.3678
150.8003
150.3662
150.6340
150.5632
150.6151
150.7223
150.4842
150.8054
150.4475
150.8675
150.3811
150.7845
150.5397
150.8131
150.6844
150.6183
150.8152
150.6015
150.9400
150.4962
150.9173
150.5209
150.8941
150.5705
150.7332
150.7512
150.7125
150.8758
150.5276
150.9019
150.5422
150.9617
150.5304
150.8730
150.6813
150.8311
150.8257
150.6646
150.9412
150.6796
151.458
150.5762
150.9912
150.6630
151.28
150.7992
150.8742
150.9356
150.7969
151.151
150.6326
151.131
150.6550
151.616
150.6394
150.9033
150.8129
150.8881
150.9681
150.7595
151.457
150.7190
151.1065
150.6531
151.423
150.7930
151.766
150.9238
150.9185
151.605
150.8925
151.1807
150.7939
151.1803
150.7977
151.1645
150.8051
151.234
150.9757
151.40
151.969
150.8317
151.1455
150.8295
151.2141
150.8006
151.1620
150.8991
151.1353
151.369
150.9783
151.1650
150.9940
151.2846
150.8723
151.2579
150.9227
151.2912
150.9973
151.1842
151.1412
151.1131
151.2307
150.9401
151.2545
150.9356
151.3147
150.8820
151.2123
151.132
151.2108
151.1603
151.910
151.2689
151.483
151.3511
150.9474
151.3269
151.282
151.3777
151.928
151.2486
151.2515
151.2307
151.3818
151.1136
151.4208
151.822
151.4342
151.178
151.3252
151.1378
151.3261
151.2589
151.1688
151.3571
151.1479
151.4470
151.783
151.4442
151.1156
151.4489
151.1826
151.3325
151.3495
151.3429
151.4780
151.2144
151.5216
151.2225
151.5847
151.2100
151.5284
151.3005
151.4894
151.3969
151.3234
151.4849
151.3089
151.5807
151.1979
151.5459
151.2439
151.5795
151.3141
151.5052
151.4573
151.4616
151.5697
151.3417
151.6284
151.3611
151.7056
151.3172
151.6383
151.4150
151.6420
151.5519
151.5407
151.6503
151.4751
151.6995
151.3464
151.6728
151.3739
151.7066
151.3870
151.5827
151.5279
151.5781
151.6593
151.4878
151.7237
151.4622
151.7804
151.4061
151.7273
151.4986
151.7615
151.6043
151.6403
151.7215
151.6221
151.8328
151.5449
151.8452
151.5219
151.8336
151.4981
151.7289
151.6182
151.7256
151.7264
151.5828
151.7852
151.5779
151.8725
151.5435
151.8630
151.5744
151.8526
151.6447
151.7460
151.7861
151.7534
151.8969
151.6466
151.9223
151.6545
151.9788
151.6539
151.9303
151.7284
151.8977
151.8121
151.7525
151.8842
151.7273
151.9632
151.6295
151.9325
151.6594
151.9594
151.7149
151.8963
151.8364
151.8684
151.9424
151.7678
152.11
151.7896
152.850
151.7436
152.362
151.8047
152.426
151.9118
151.9602
152.86
151.9111
152.669
151.7957
152.600
151.8004
152.1048
151.7805
152.137
151.8818
152.38
152.7
151.9308
152.816
151.9035
152.1466
151.8364
152.1272
151.8942
152.1804
151.9415
152.886
152.601
152.759
152.1682
151.9974
152.2103
151.9733
152.2353
151.9074
152.1621
151.9501
152.1630
152.312
152.482
152.1224
152.361
152.2158
151.9812
152.2396
151.9894
152.2754
151.9849
152.2043
152.926
152.2207
152.1994
152.1285
152.2720
152.1269
152.3556
152.786
152.3449
152.833
152.3257
152.850
152.2136
152.1765
152.1969
152.2590
152.918
152.2908
152.886
152.3472
152.622
152.3167
152.1048
152.3115
152.1781
152.2230
152.2794
152.2341
152.3754
152.1524
152.3845
152.1590
152.4259
152.1596
152.3789
152.2154
152.3462
152.2813
152.2257
152.3289
152.1939
152.3825
152.1139
152.3584
152.1343
152.3839
152.1663
152.3317
152.2576
152.3006
152.3378
152.2094
152.3839
152.2246
152.4580
152.1820
152.4252
152.2218
152.4387
152.2844
152.3722
152.3665
152.3332
152.4178
152.2291
152.4178
152.2068
152.4428
152.1647
152.3751
152.2218
152.3830
152.3172
152.3291
152.3956
152.2973
152.4514
152.2320
152.4546
152.2581
152.5000
152.2606
152.4407
152.3418
152.4381
152.4362
152.3698
152.4828
152.3351
152.5086
152.2525
152.4603
152.2522
152.4633
152.2644
152.3737
152.3460
152.3689
152.4330
152.3095
152.4681
152.2873
152.4966
152.2492
152.4576
152.2954
152.4841
152.3604
152.4095
152.4367
152.3931
152.5075
152.3406
152.5231
152.3189
152.5214
152.2758
152.4425
152.3074
152.4305
152.3668
152.3381
152.4184
152.3254
152.4803
152.2833
152.4811
152.2885
152.4942
152.2920
152.4312
152.3646
152.4344
152.4451
152.3699
152.4894
152.3606
152.5378
152.3265
152.5205
152.3262
152.4947
152.3261
152.4024
152.3766
152.3745
152.4271
152.2895
152.4359
152.2730
152.4617
152.2546
152.4360
152.2815
152.4258
152.3320
152.3569
152.3981
152.3477
152.4536
152.2875
152.4551
152.2916
152.4832
152.2880
152.4397
152.3214
152.4171
152.3896
152.3718
152.4633
152.3937
152.5449
152.3670
152.5526
152.4022
152.5938
152.4468
152.5855
152.5294
152.5906
152.6136
152.5408
152.6623
152.5553
152.7275
152.5390
152.7246
152.5756
152.7502
152.6257
152.7139
152.6948
152.6903
152.7411
152.6170
152.7483
152.5961
152.7715
152.5612
152.7260
152.5948
152.7321
152.6594
152.6947
152.7281
152.6744
152.7786
152.6208
152.7870
152.6380
152.8292
152.6386
152.7939
152.6928
152.7938
152.7668
152.7424
152.8117
152.7131
152.8359
152.6450
152.8047
152.6291
152.8018
152.6223
152.7332
152.6830
152.7305
152.7589
152.6864
152.7976
152.6669
152.8296
152.6318
152.8064
152.6612
152.8316
152.6982
152.7742
152.7694
152.7705
152.8409
152.7269
152.8639
152.7007
152.8635
152.6486
152.8002
152.6608
152.7908
152.6990
152.7083
152.7491
152.6964
152.8097
152.6560
152.8193
152.6485
152.8315
152.6450
152.7921
152.7030
152.8034
152.7759
152.7428
152.8241
152.7344
152.8777
152.7021
152.8737
152.6919
152.8550
152.6755
152.7757
152.7157
152.7504
152.7617
152.6673
152.7818
152.6487
152.8149
152.6254
152.8025
152.6422
152.8022
152.6752
152.7442
152.7472
152.7398
152.8091
152.6800
152.8257
152.6798
152.8627
152.6672
152.8320
152.6871
152.8049
152.7158
152.7172
152.7509
152.6854
152.7882
152.6113
152.7734
152.6073
152.7891
152.6130
152.7619
152.6632
152.7505
152.7312
152.6840
152.7753
152.6805
152.8278
152.6419
152.8194
152.6584
152.8391
152.6838
152.7933
152.7370
152.7584
152.7743
152.6722
152.7826
152.6451
152.8083
152.5929
152.7616
152.6154
152.7707
152.6632
152.7294
152.7311
152.7089
152.7880
152.6496
152.8022
152.6559
152.8417
152.6451
152.8122
152.6880
152.8168
152.7578
152.7673
152.8086
152.7311
152.8317
152.6566
152.8117
152.6404
152.8186
152.6207
152.7525
152.6694
152.7477
152.7462
152.7068
152.7958
152.6827
152.8298
152.6408
152.8188
152.6675
152.8481
152.6886
152.7966
152.7607
152.7916
152.8328
152.7420
152.8593
152.7146
152.8697
152.6582
152.8161
152.6590
152.8059
152.6791
152.7284
152.7389
152.7156
152.8011
152.6671
152.8157
152.6536
152.8345
152.6372
152.7966
152.6819
152.8089
152.7482
152.7474
152.8036
152.7384
152.8618
152.6996
152.8642
152.6833
152.8523
152.6557
152.7779
152.6893
152.7611
152.7415
152.6753
152.7702
152.6617
152.8159
152.6333
152.8102
152.6408
152.8122
152.6605
152.7597
152.7365
152.7628
152.8060
152.7063
152.8355
152.7042
152.8787
152.6849
152.8585
152.6964
152.8362
152.7134
152.7457
152.7525
152.7228
152.8020
152.6506
152.8023
152.6449
152.8274
152.6396
152.8010
152.6766
152.7965
152.7413
152.7317
152.7964
152.7297
152.8544
152.6854
152.8563
152.6958
152.8826
152.7072
152.8430
152.7503
152.8097
152.7895
152.7235
152.8097
152.6944
152.8401
152.6329
152.8031
152.6428
152.8132
152.6757
152.7856
152.7510
152.7639
152.8064
152.6990
152.8314
152.7034
152.8799
152.6807
152.8566
152.7115
152.8653
152.7641
152.8178
152.8221
152.7848
152.8549
152.7057
152.8469
152.6827
152.8575
152.6459
152.7966
152.6806
152.7987
152.7543
152.7544
152.8095
152.7319
152.8542
152.6808
152.8530
152.7010
152.8903
152.7051
152.8402
152.7636
152.8416
152.8428
152.7947
152.8817
152.7561
152.8900
152.6863
152.8474
152.6804
152.8484
152.6835
152.7736
152.7426
152.7587
152.8086
152.7130
152.8386
152.6931
152.8618
152.6605
152.8320
152.6931
152.8470
152.7376
152.7862
152.8032
152.7810
152.8712
152.7339
152.8818
152.7110
152.8770
152.6680
152.8105
152.6836
152.7970
152.7310
152.7131
152.7710
152.6926
152.8204
152.6580
152.8278
152.6565
152.8376
152.6539
152.7839
152.7157
152.7902
152.7888
152.7316
152.8314
152.7259
152.8827
152.6931
152.8650
152.6875
152.8451
152.6852
152.7700
152.7342
152.7444
152.7799
152.6590
152.7887
152.6547
152.8306
152.6358
152.8071
152.6529
152.8009
152.7008
152.7398
152.7693
152.7428
152.8351
152.6938
152.8515
152.6939
152.8786
152.6894
152.8463
152.7162
152.8197
152.7556
152.7360
152.7892
152.7055
152.8229
152.6329
152.7991
152.6361
152.8187
152.6516
152.7884
152.7095
152.7713
152.7728
152.6978
152.8066
152.7061
152.8691
152.6751
152.8525
152.6961
152.8687
152.7296
152.8256
152.7902
152.7945
152.8262
152.7057
152.8260
152.6781
152.8454
152.6313
152.7962
152.6550
152.8029
152.7124
152.7561
152.7736
152.7212
152.8168
152.6749
152.8385
152.6891
152.8784
152.6836
152.8420
152.7313
152.8489
152.8069
152.8009
152.8550
152.7642
152.8734
152.6874
152.8432
152.6729
152.8512
152.6599
152.7846
152.7151
152.7742
152.7851
152.7288
152.8292
152.7119
152.8672
152.6725
152.8490
152.6981
152.8726
152.7262
152.8217
152.7982
152.8186
152.8726
152.7665
152.8906
152.7409
152.9003
152.6906
152.8471
152.6934
152.8357
152.7208
152.7509
152.7725
152.7368
152.8334
152.6972
152.8533
152.6847
152.8651
152.6676
152.8224
152.7204
152.8427
152.7932
152.7855
152.8487
152.7750
152.9042
152.7369
152.9031
152.7249
152.8942
152.7014
152.8197
152.7379
152.7987
152.7884
152.7140
152.8130
152.7040
152.8640
152.6787
152.8545
152.6869
152.8553
152.7092
152.8004
152.7839
152.8085
152.8567
152.7491
152.8809
152.7478
152.9245
152.7328
152.9053
152.7438
152.8803
152.7636
152.7987
152.8085
152.7703
152.8494
152.6954
152.8486
152.6930
152.8773
152.6937
152.8545
152.7298
152.8456
152.7938
152.7860
152.8531
152.7865
152.9128
152.7438
152.9157
152.7552
152.9432
152.7684
152.9042
152.8101
152.8722
152.8502
152.7851
152.8700
152.7546
152.8977
152.6914
152.8618
152.7026
152.8735
152.7323
152.8412
152.8025
152.8178
152.8579
152.7557
152.8870
152.7633
152.9387
152.7359
152.9106
152.7655
152.9216
152.8144
152.8746
152.8738
152.8417
152.9056
152.7546
152.8912
152.7300
152.9058
152.6956
152.8501
152.7266
152.8503
152.7983
152.8050
152.8524
152.7830
152.8996
152.7322
152.8999
152.7422
152.9295
152.7458
152.8874
152.8004
152.8875
152.8773
152.8346
152.9146
152.8001
152.9281
152.7291
152.8890
152.7196
152.8925
152.7167
152.8139
152.7734
152.7999
152.8390
152.7523
152.8721
152.7358
152.9045
152.7008
152.8728
152.7322
152.8933
152.7713
152.8367
152.8409
152.8266
152.9059
152.7789
152.9196
152.7548
152.9197
152.7082
152.8571
152.7204
152.8405
152.7590
152.7559
152.8040
152.7414
152.8596
152.7035
152.8697
152.6977
152.8788
152.6963
152.8389
152.7548
152.8475
152.8266
152.7812
152.8683
152.7726
152.9216
152.7456
152.9198
152.7406
152.9039
152.7275
152.8223
152.7690
152.8010
152.8203
152.7187
152.8377
152.7072
152.8781
152.6886
152.8654
152.7077
152.8650
152.7440
152.8122
152.8209
152.8114
152.8844
152.7571
152.9044
152.7608
152.9454
152.7514
152.9171
152.7725
152.8922
152.8016
152.8054
152.8381
152.7772
152.8782
152.7018
152.8604
152.6974
152.8803
152.7023
152.8515
152.7481
152.8377
152.8142
152.7722
152.8603
152.7740
152.9190
152.7390
152.9157
152.7513
152.9310
152.7744
152.8935
152.8285
152.8645
152.8698
152.7778
152.8800
152.7468
152.9028
152.6923
152.8630
152.7126
152.8766
152.7554
152.8344
152.8234
152.8164
152.8822
152.7590
152.9035
152.7644
152.9479
152.7476
152.9175
152.7867
152.9284
152.8500
152.8832
152.9064
152.8454
152.9307
152.7670
152.9147
152.7490
152.9291
152.7238
152.8692
152.7656
152.8640
152.8363
152.8163
152.8858
152.7980
152.9331
152.7497
152.9210
152.7615
152.9447
152.7745
152.9036
152.8422
152.9029
152.9169
152.8520
152.9495
152.8208
152.9624
152.7591
152.9198
152.7520
152.9125
152.7577
152.8353
152.8183
152.8278
152.8874
152.7797
152.9125
152.7653
152.9397
152.7389
152.9069
152.7733
152.9273
152.8301
152.8722
152.8963
152.8665
152.9626
152.8252
152.9770
152.8054
152.9730
152.7671
152.9086
152.7852
152.8946
152.8331
152.8162
152.8769
152.7965
152.9247
152.7628
152.9343
152.7649
152.9468
152.7642
152.8950
152.8261
152.9039
152.9001
152.8474
152.9438
152.8375
152.9911
152.8061
152.9794
152.8042
152.9644
152.7968
152.8870
152.8444
152.8596
152.8877
152.7758
152.8988
152.7644
152.9359
152.7438
152.9189
152.7640
152.9151
152.8009
152.8538
152.8716
152.8580
152.9407
152.8019
152.9523
152.8052
152.9895
152.8001
152.9649
152.8250
152.9387
152.8572
152.8484
152.8874
152.8261
152.9341
152.7574
152.9181
152.7503
152.9313
152.7584
152.9050
152.8095
152.8979
152.8784
152.8278
152.9187
152.8307
152.9785
152.7965
152.9728
152.8075
152.9855
152.8327
152.9492
152.8886
152.9221
152.9295
152.8339
152.9385
152.8045
152.9617
152.7549
152.9227
152.7706
152.9311
152.8121
152.8864
152.8780
152.8716
152.9368
152.8157
152.9599
152.8169
152.9988
152.8030
152.9717
152.8401
152.9835
152.9037
152.9352
152.9575
152.8991
152.9826
152.8242
152.9701
152.8045
152.9832
152.7776
152.9210
152.8173
152.9215
152.8905
152.8753
152.9416
152.8493
152.9816
152.8181
152.9915
152.8365
153.187
152.8417
152.9721
152.9049
152.9796
152.9865
152.9279
153.223
152.8995
153.397
152.8488
153.101
152.8463
153.125
152.8491
152.9373
152.9076
152.9288
152.9774
152.8931
153.183
152.8777
153.467
152.8587
153.305
152.8939
153.522
152.9335
152.9927
153.8
152.9953
153.755
152.9575
153.962
152.9313
153.946
152.8948
153.440
152.9090
153.356
152.9460
152.9552
152.9950
152.9453
153.560
152.9191
153.782
152.9118
153.902
152.9110
153.590
152.9622
153.701
153.295
153.107
153.818
153.132
153.1456
152.9847
153.1487
152.9698
153.1329
152.9560
153.760
152.9924
153.558
153.404
152.9739
153.703
152.9712
153.1215
152.9512
153.1233
152.9570
153.1238
152.9776
153.869
153.529
153.885
153.1171
153.323
153.1512
153.402
153.2058
153.200
153.1861
153.203
153.1636
153.299
153.1019
153.840
153.738
153.1243
153.55
153.1398
153.80
153.1795
152.9967
153.1620
153.232
153.1633
153.710
153.1240
153.1495
153.1173
153.2039
153.826
153.2357
153.945
153.2720
153.949
153.2509
153.1202
153.2344
153.1540
153.1581
153.1918
153.1318
153.2310
153.798
153.2353
153.809
153.2548
153.907
153.2409
153.1340
153.2358
153.1987
153.1885
153.2589
153.1937
153.3200
153.1598
153.3253
153.1820
153.3607
153.1976
153.3312
153.2373
153.3040
153.2772
153.2383
153.3122
153.2115
153.3408
153.1687
153.3322
153.1853
153.3530
153.2055
153.3267
153.2618
153.3224
153.3315
153.2768
153.3789
153.2831
153.4326
153.2657
153.4379
153.2967
153.4617
153.3221
153.4304
153.3767
153.4044
153.4147
153.3418
153.4369
153.3117
153.4575
153.2772
153.4395
153.2968
153.4506
153.3286
153.4237
153.3914
153.4138
153.4548
153.3724
153.4922
153.3796
153.5397
153.3653
153.5324
153.4029
153.5575
153.4417
153.5226
153.4964
153.4943
153.5334
153.4373
153.5509
153.4153
153.5685
153.3880
153.5437
153.4076
153.5473
153.4497
153.5266
153.5192
153.5122
153.5753
153.4847
153.6136
153.4846
153.6472
153.4804
153.6417
153.5157
153.6571
153.5663
153.6333
153.6257
153.6029
153.6551
153.5436
153.6625
153.5260
153.6835
153.5036
153.6543
153.5348
153.6665
153.5830
153.6376
153.6476
153.6377
153.7128
153.6057
153.7382
153.6178
153.7828
153.6158
153.7720
153.6605
153.7984
153.7140
153.7624
153.7650
153.7425
153.8027
153.6878
153.8055
153.6709
153.8266
153.6523
153.7997
153.6855
153.8143
153.7328
153.7843
153.7944
153.7813
153.8535
153.7476
153.8767
153.7624
153.9240
153.7599
153.9112
153.7974
153.9321
153.8483
153.9042
153.9014
153.8820
153.9344
153.8271
153.9386
153.8085
153.9592
153.7906
153.9346
153.8146
153.9420
153.8611
153.9304
153.9310
153.9249
153.9850
153.8991
154.187
153.9110
154.618
153.9177
154.678
153.9606
154.920
154.5
154.686
154.497
154.566
154.821
154.2
154.852
153.9842
154.1073
153.9718
154.1012
154.46
154.1177
154.357
154.1042
154.816
154.1274
154.1405
154.1120
154.1690
154.1369
154.2128
154.1592
154.2296
154.2120
154.2448
154.2528
154.2096
154.2077
154.2049
154.1853
154.1531
154.1383
154.1300
154.1154
154.825
154.592
154.515
154.251
153.9880
153.9495
153.9295
153.9026
153.8533
153.7902
153.7507
153.7129
153.6707
153.6090
153.5595
153.5148
153.4605
153.3844
153.3000
153.2394
153.1702
153.814
152.9767
152.8884
152.8100
152.7378
152.6415
152.5570
152.4864
152.4020
152.3123
152.2142
152.1397
152.665
151.9840
151.8746
151.7827
151.7128
151.6328
151.5407
151.4515
151.3707
151.2864
151.1957
151.802
150.9877
150.9010
150.8051
150.6799
150.5589
150.4665
150.3703
150.2765
150.1668
150.740
149.9874
149.8929
149.7857
149.6825
149.6022
149.5175
149.4172
149.2955
149.1994
149.1185
149.330
148.9283
148.8306
148.7392
148.6442
148.5428
148.4187
148.3163
148.2213
148.1181
147.9869
147.8575
147.7577
147.6557
147.5591
147.4372
147.3330
147.2394
147.1359
147.279
146.9125
146.8234
146.7366
146.6401
146.5103
146.3948
146.3106
146.2151
146.1205
146.88
145.9095
145.8124
145.7090
145.5875
145.4616
145.3652
145.2591
145.1399
144.9967
144.8665
144.7660
144.6586
144.5489
144.4259
144.3189
144.2193
144.1090
143.9874
143.8688
143.7771
143.6828
143.5760
143.4371
143.3166
143.2278
143.1254
143.236
142.9026
142.7951
142.6916
142.5796
142.4544
142.3176
142.2118
142.1041
141.9844
141.8323
141.6923
141.5863
141.4743
141.3697
141.2340
141.1168
141.126
140.8994
140.7826
140.6486
140.5402
140.4461
140.3441
140.2142
140.720
139.9571
139.8616
139.7566
139.6365
139.5159
139.4035
139.2948
139.1777
139.361
138.8963
138.7882
138.6762
138.5517
138.3956
138.2533
138.1425
138.256
137.9138
137.7703
137.6466
137.5369
137.4207
137.3028
137.1649
137.434
136.9457
136.8403
136.7196
136.5675
136.4386
136.3429
136.2298
136.1195
135.9844
135.8663
135.7499
135.6282
135.4994
135.3453
135.2160
135.1073
134.9847
134.8441
134.6832
134.5403
134.4296
134.3058
134.1870
134.384
133.9141
133.8005
133.6790
133.5555
133.4100
133.2835
133.1803
133.713
132.9493
132.7922
132.6531
132.5497
132.4371
132.3227
132.1794
132.511
131.9273
131.8055
131.6781
131.5260
131.3715
131.2562
131.1375
131.46
130.8376
130.6794
130.5491
130.4372
130.3127
130.1797
130.270
129.8967
129.7783
129.6518
129.5276
129.3799
129.2536
129.1506
129.376
128.9111
128.7462
128.6015
128.4929
128.3814
128.2599
128.1172
127.9763
127.8498
127.7247
127.5872
127.4435
127.2780
127.1434
127.289
126.9006
126.7521
126.5738
126.4191
126.2974
126.1735
126.497
125.9009
125.7548
125.6270
125.5057
125.3719
125.2386
125.825
124.9526
124.8459
124.7318
124.6031
124.4348
124.2831
124.1658
124.580
123.9276
123.7973
123.6406
123.5080
123.3751
123.2443
123.1085
122.9460
122.7873
122.6682
122.5482
122.4111
122.2460
122.716
121.9252
121.8132
121.6851
121.5605
121.4003
121.2530
121.1265
121.82
120.8771
120.7479
120.5912
120.4547
120.3463
120.2351
120.1097
119.9511
119.7835
119.6517
119.5500
119.4246
119.3023
119.1461
119.16
118.8688
118.7383
118.6017
118.4590
118.2855
118.1304
118.177
117.8940
117.7581
117.5911
117.4132
117.2657
117.1533
117.297
116.9044
116.7598
116.6040
116.4758
116.3550
116.2300
116.973
115.9506
115.7992
115.6819
115.5753
115.4504
115.3160
115.1401
114.9866
114.8680
114.7658
114.6316
114.5060
114.3402
114.1965
114.632
113.9283
113.7922
113.6551
113.4858
113.3255
113.2071
113.896
112.9550
112.8030
112.6134
112.4598
112.3392
112.2319
112.940
111.9740
111.8074
111.6670
111.5465
111.4304
111.3020
111.1738
111.219
110.8711
110.7569
110.6515
110.5313
110.3993
110.2276
110.627
109.9371
109.8362
109.7107
109.5720
109.4275
109.2588
109.1279
108.9961
108.8640
108.7258
108.5858
108.4090
108.2575
108.1477
108.288
107.8912
107.7418
107.5516
107.3991
107.2777
107.1767
107.470
106.9243
106.7774
106.6188
106.5010
106.3844
106.2647
106.1309
106.7
105.8378
105.6984
105.5956
105.4898
105.3660
105.2320
105.522
104.8899
104.7706
104.6742
104.5477
104.4010
104.2649
104.897
103.9554
103.8279
103.6933
103.5574
103.4231
103.2697
103.950
102.9632
102.8617
102.7336
102.5943
102.4397
102.2533
102.1116
101.9991
101.9040
101.7784
101.6532
101.5248
101.3550
101.2361
101.1241
101.91
100.8774
100.7533
100.6101
100.4497
100.3308
100.2315
100.1186
99.9918
99.8591
99.6784
99.5178
99.4001
99.3067
99.1860
99.382
98.9123
98.7419
98.5984
98.4827
98.3514
98.2270
98.950
97.9612
97.7856
97.6263
97.5181
97.4246
97.3044
97.1743
97.274
96.8405
96.7038
96.5948
96.5027
96.3842
96.2558
96.1516
95.9881
95.8504
95.7459
95.6351
95.5180
95.3885
95.2703
95.1156
94.9588
94.8477
94.7592
94.6486
94.5204
94.3894
94.2169
94.464
93.9310
93.8380
93.7293
93.5876
93.4604
93.3374
93.1634
93.438
92.9333
92.8047
92.6743
92.5468
92.4258
92.2632
92.1106
92.77
91.9254
91.8088
91.6822
91.5573
91.3809
91.2210
91.1172
91.347
90.9447
90.8182
90.7003
90.5982
90.4314
90.3059
90.2116
90.1011
89.9807
89.8535
89.7438
89.6121
89.4489
89.3312
89.2513
89.1533
89.349
88.9164
88.7880
88.6044
88.4509
88.3530
88.2724
88.1677
88.272
87.9048
87.7988
87.6306
87.5008
87.4068
87.2939
87.1634
87.385
86.9279
86.8081
86.6397
86.5052
86.4231
86.3470
86.2290
86.1067
85.9916
85.8321
85.6672
85.5646
85.4838
85.4042
85.2877
85.1569
85.727
84.9547
84.7909
84.6898
84.6101
84.4990
84.3778
84.2569
84.1556
84.419
83.8808
83.7596
83.6842
83.6083
83.4950
83.3748
83.2645
83.1251
82.9426
82.8224
82.7426
82.6712
82.5679
82.4351
82.3220
82.2367
82.764
81.9350
81.8543
81.7640
81.6341
81.5083
81.3971
81.3096
81.1761
81.161
80.9090
80.8497
80.7761
80.6574
80.5432
80.4448
80.3176
80.1413
80.246
79.9517
79.8969
79.8126
79.6871
79.5749
79.5101
79.3811
79.2245
79.1422
79.718
78.9659
78.8454
78.7288
78.6336
78.5505
78.4017
78.2670
78.1880
78.1332
78.392
77.9213
77.8186
77.7326
77.5988
77.4123
77.2970
77.2336
77.1770
77.830
76.9583
76.8382
76.7686
76.6633
76.5003
76.3995
76.3317
76.2459
76.1211
76.78
75.9075
75.8255
75.7115
75.5471
75.4374
75.3848
75.3445
75.2412
75.1235
75.321
74.9487
74.8091
74.6443
74.5534
74.4956
74.4506
74.3639
74.2444
74.1399
74.897
74.64
73.8406
73.7360
73.6872
73.6280
73.5174
73.3976
73.2981
73.2268
73.1558
73.62
72.8685
72.8010
72.7610
72.6981
72.5839
72.4780
72.3934
72.3145
72.1516
71.9956
71.9203
71.8753
71.8307
71.7345
71.6109
71.5002
71.4434
71.3631
71.2020
71.832
71.384
70.9903
70.8851
70.7631
70.6667
70.5927
70.5329
70.4178
70.2587
70.1583
70.1191
70.987
70.121
69.8934
69.8052
69.7453
69.6609
69.4998
69.3750
69.3225
69.2871
69.2514
69.1646
69.421
68.9392
68.9075
68.8684
68.7135
68.5827
68.5472
68.5151
68.4469
68.3336
68.2292
68.1449
68.919
68.260
67.8740
67.7428
67.6917
67.6756
67.6330
67.5205
67.4126
67.3416
67.2931
67.2125
67.383
66.9031
66.8585
66.8308
66.7958
66.6988
66.5787
66.4795
66.4338
66.4021
66.2566
66.1045
66.527
66.378
65.9861
65.8692
65.7572
65.6789
65.6229
65.5816
65.4728
65.3117
65.2176
65.1968
65.1955
65.1385
65.219
64.9300
64.8789
64.8371
64.7550
64.5931
64.4809
64.4492
64.4294
64.4119
64.3339
64.2259
64.1336
64.984
64.954
63.9848
63.8160
63.7488
63.7487
63.7330
63.6602
63.5375
63.4449
63.3857
63.3544
63.3096
63.1717
63.273
62.9617
62.9593
62.9630
62.8992
62.7869
62.7001
62.6527
62.6188
62.5379
62.3627
62.2433
62.2172
62.2120
62.1942
62.1147
62.28
61.9071
61.8507
61.8426
61.7928
61.6291
61.4973
61.4806
61.4830
61.4474
61.3371
61.2276
61.1621
61.1181
61.933
61.389
60.8855
60.7576
60.7168
60.7291
60.7430
60.6754
60.5542
60.4716
60.4447
60.4324
60.3788
60.2189
60.983
60.700
60.743
60.675
60.293
59.9377
59.8412
59.7814
59.7783
59.7880
59.6728
59.5145
59.4565
59.4770
59.4787
59.4314
59.3120
59.2098
59.1595
59.1431
59.1357
59.743
58.9186
58.8017
58.7849
58.8073
58.8159
58.7409
58.6253
58.5530
58.5275
58.5167
58.4831
58.3308
58.1765
58.1217
58.1360
58.1475
58.1336
58.426
57.9415
57.8624
57.8295
57.8369
57.8082
57.6466
57.5085
57.4933
57.5273
57.5258
57.4533
57.3274
57.2478
57.2157
57.1983
57.1933
57.1278
56.9772
56.8754
56.8628
56.8870
56.9137
56.8681
56.7543
56.6683
56.6472
56.6567
56.6508
56.5504
56.3922
56.3197
56.3376
56.3634
56.3708
56.3330
56.2362
56.1560
56.1190
56.1305
56.1524
56.746
55.9036
55.8158
55.8497
55.8982
55.8923
55.8083
55.6898
55.6260
55.6030
55.6003
55.6048
55.5507
55.3977
55.2920
55.2864
55.3179
55.3433
55.3139
55.2037
55.1219
55.1009
55.1100
55.1146
55.491
54.8757
54.7489
54.7408
54.7857
54.8027
54.7923
54.7013
54.6026
54.5418
54.5233
54.5444
54.5611
54.4321
54.2646
54.2148
54.2729
54.3169
54.2930
54.1911
54.756
54.308
54.259
54.298
54.366
53.9806
53.8347
53.7333
53.7272
53.7760
53.8238
53.8200
53.7187
53.6219
53.5986
53.6216
53.6483
53.6315
53.4886
53.3513
53.3315
53.3756
53.4098
53.4203
53.3825
53.2873
53.2209
53.2000
53.2272
53.2784
53.2494
53.881
52.9768
52.9953
53.675
53.900
53.667
52.9574
52.8577
52.8329
52.8407
52.8505
52.8691
52.7981
52.6488
52.5681
52.5886
52.6448
52.6836
52.6693
52.5629
52.4852
52.4648
52.4801
52.5073
52.5003
52.3718
52.2094
52.1616
52.2028
52.2491
52.2717
52.2531
52.1560
52.714
52.364
52.440
52.844
52.1098
51.9956
51.8376
51.7892
51.8526
51.9131
51.9162
51.8493
51.7288
51.6710
51.6702
51.6809
51.7027
51.7129
51.6065
51.4814
51.4308
51.4719
51.5411
51.5915
51.5766
51.4676
51.3927
51.3924
51.4358
51.4757
51.4703
51.3412
51.2043
51.1833
51.2353
51.2863
51.3215
51.3194
51.2326
51.1637
51.1454
51.1658
51.2209
51.2560
51.1575
51.95
50.9642
51.346
51.1124
51.1367
51.904
50.9786
50.9160
50.9122
50.9280
50.9544
50.9847
50.9158
50.7662
50.6998
50.7433
50.8181
50.8659
50.8678
50.7818
50.7036
50.6822
50.7081
50.7543
50.7763
50.6912
50.5144
50.4311
50.4684
50.5396
50.5826
50.6040
50.5402
50.4392
50.3911
50.3991
50.4324
50.4822
50.4806
50.3345
50.2045
50.2082
50.2953
50.3609
50.3690
50.3059
50.1838
50.1429
50.1636
50.1909
50.2219
50.2459
50.1675
50.397
49.9900
50.388
50.1092
50.1669
50.1800
50.926
50.174
50.140
50.623
50.1213
50.1433
50.733
49.9165
49.8542
49.9070
49.9872
50.349
50.615
50.155
49.9366
49.8996
49.9148
49.9687
50.417
50.500
49.9071
49.7801
49.7992
49.9046
49.9840
50.1
49.9535
49.8460
49.7978
49.8168
49.8522
49.8957
49.9245
49.8533
49.7157
49.6647
49.7184
49.8056
49.8648
49.8810
49.7928
49.7142
49.6996
49.7323
49.7869
49.8271
49.7876
49.6213
49.5211
49.5506
49.6313
49.6896
49.7211
49.6886
49.6004
49.5551
49.5549
49.5863
49.6436
49.6862
49.5836
49.4380
49.4036
49.4804
49.5718
49.6123
49.5875
49.4737
49.4086
49.4177
49.4600
49.4984
49.5377
49.5359
49.4115
49.3177
49.3308
49.4117
49.4891
49.5600
49.5376
49.4268
49.3796
49.4218
49.4950
49.5495
49.5615
49.4404
49.3044
49.2945
49.3749
49.4590
49.5158
49.5513
49.4910
49.4221
49.4074
49.4380
49.5083
49.5884
49.5746
49.4278
49.3301
49.3764
49.4968
49.5730
49.5891
49.5183
49.4185
49.3886
49.4212
49.4698
49.5235
49.5595
49.4768
49.3583
49.3255
49.3943
49.4873
49.5577
49.5721
49.4772
49.4100
49.4246
49.4765
49.5313
49.5685
49.5170
49.3575
49.2791
49.3241
49.4082
49.4690
49.5060
49.4876
49.4085
49.3669
49.3702
49.4048
49.4739
49.5290
49.4304
49.2846
49.2591
49.3524
49.4531
49.5034
49.4864
49.3825
49.3183
49.3303
49.3847
49.4349
49.4779
49.4732
49.3478
49.2631
49.2918
49.3841
49.4691
49.5302
49.4986
49.4109
49.3916
49.4472
49.5211
49.5818
49.5853
49.4641
49.3565
49.3641
49.4549
49.5391
49.5940
49.6208
49.5590
49.5074
49.5122
49.5607
49.6389
49.7198
49.6833
49.5334
49.4716
49.5469
49.6648
49.7385
49.7548
49.6806
49.6061
49.6060
49.6481
49.6935
49.7536
49.7864
49.6810
49.5706
49.5721
49.6611
49.7462
49.8167
49.8167
49.7170
49.6727
49.7078
49.7747
49.8361
49.8667
49.7706
49.6362
49.6135
49.6929
49.7859
49.8434
49.8747
49.8135
49.7493
49.7368
49.7689
49.8302
49.9099
49.9038
49.7538
49.6604
49.7155
49.8381
49.9234
49.9494
49.8736
49.7814
49.7755
49.8310
49.8919
49.9400
49.9657
49.8724
49.7689
49.7700
49.8565
49.9520
50.372
50.537
49.9592
49.9065
49.9547
50.385
50.1139
50.1485
50.619
49.9296
49.9147
50.29
50.947
50.1603
50.2093
50.1676
50.1144
50.1015
50.1442
50.2288
50.3278
50.3020
50.1525
50.904
50.1728
50.2962
50.3659
50.3838
50.3210
50.2510
50.2584
50.3051
50.3597
50.4227
50.4400
50.3301
50.2462
50.2779
50.3788
50.4659
50.5291
50.4944
50.4072
50.3937
50.4427
50.5156
50.5719
50.5746
50.4429
50.3362
50.3574
50.4550
50.5337
50.5844
50.5883
50.5233
50.4828
50.4844
50.5363
50.6153
50.6900
50.6009
50.4673
50.4621
50.5724
50.6751
50.7232
50.6968
50.5980
50.5675
50.6087
50.6626
50.7143
50.7616
50.7063
50.5933
50.5732
50.6529
50.7525
50.8418
50.8870
50.8043
50.7443
50.7770
50.8622
50.9398
50.9804
50.9039
50.7821
50.7697
50.8603
50.9539
51.161
51.687
51.238
50.9765
50.9853
51.440
51.1230
51.2085
51.1580
51.212
51.6
51.1071
51.2184
51.2800
51.2807
51.1946
51.1458
51.1664
51.2222
51.2891
51.3504
51.3062
51.1990
51.1751
51.2473
51.3437
51.4326
51.4597
51.3793
51.3349
51.3702
51.4380
51.5045
51.5469
51.4516
51.3252
51.3188
51.4069
51.4950
51.5581
51.5772
51.5137
51.4766
51.4841
51.5227
51.6044
51.6736
51.5933
51.4689
51.4719
51.5843
51.6872
51.7406
51.7044
51.6055
51.5813
51.6265
51.6911
51.7523
51.7923
51.7152
51.6250
51.6359
51.7190
51.8130
51.9050
51.9005
51.8182
51.8036
51.8665
51.9482
52.221
52.227
51.8984
51.8259
51.8824
51.9841
52.554
52.1158
52.1015
52.507
52.406
52.843
52.1629
52.2701
52.2660
52.1192
52.700
52.1639
52.2805
52.3540
52.3675
52.2850
52.2379
52.2661
52.3207
52.3867
52.4544
52.4023
52.2950
52.2814
52.3670
52.4612
52.5372
52.5394
52.4655
52.4485
52.4951
52.5609
52.6261
52.6409
52.5181
52.4230
52.4586
52.5543
52.6316
52.6916
52.6692
52.6090
52.5905
52.6211
52.6851
52.7771
52.7605
52.6202
52.5673
52.6573
52.7782
52.8507
52.8502
52.7568
52.7170
52.7534
52.8089
52.8694
52.9220
52.8538
52.7585
52.7620
52.8517
52.9483
53.339
53.240
52.9506
52.9414
53.86
53.896
53.1504
53.1334
53.170
52.9781
53.499
53.1428
53.2104
53.2715
53.2341
53.1854
53.1879
53.2439
53.3405
53.4229
53.3382
53.2256
53.2481
53.3656
53.4597
53.5054
53.4616
53.3963
53.3935
53.4302
53.4917
53.5692
53.5673
53.4575
53.4054
53.4668
53.5673
53.6593
53.6860
53.6103
53.5811
53.6292
53.6956
53.7612
53.7726
53.6468
53.5567
53.5924
53.6896
53.7676
53.8255
53.7957
53.7381
53.7240
53.7617
53.8337
53.9215
53.8652
53.7393
53.7246
53.8242
53.9240
53.9761
53.9366
53.8600
53.8619
53.9080
53.9588
54.218
54.289
53.9275
53.8676
53.9200
54.205
54.1157
54.1582
54.889
54.533
54.971
54.1728
54.2398
54.2515
54.1392
54.758
54.1273
54.2219
54.2987
54.3642
54.3333
54.2921
54.2961
54.3516
54.4379
54.5130
54.4290
54.3196
54.3546
54.4738
54.5624
54.6011
54.5465
54.4855
54.4964
54.5428
54.5981
54.6653
54.6288
54.5343
54.5169
54.5911
54.6854
54.7729
54.7597
54.6852
54.6829
54.7426
54.8165
54.8735
54.8116
54.6858
54.6668
54.7431
54.8261
54.8903
54.9027
54.8465
54.8163
54.8340
54.8920
54.9827
54.9702
54.8462
54.8088
54.8997
55.71
55.661
55.374
54.9554
54.9416
54.9847
55.416
55.1031
55.1093
55.57
54.9519
55.26
55.1032
55.2113
55.2498
55.1696
55.1379
55.1864
55.2670
55.3382
55.3230
55.2026
55.1677
55.2445
55.3314
55.3995
55.4412
55.4004
55.3666
55.3843
55.4536
55.5529
55.5598
55.4306
55.3841
55.4774
55.5949
55.6587
55.6408
55.5709
55.5540
55.5835
55.6414
55.7133
55.7188
55.6128
55.5680
55.6308
55.7198
55.8073
55.8217
55.7547
55.7399
55.7942
55.8624
55.9254
55.8749
55.7402
55.7119
55.7909
55.8779
55.9476
55.9515
55.8951
55.8684
55.8842
55.9430
56.355
56.17
55.8773
55.8562
55.9575
56.515
56.991
56.469
55.9774
55.9837
56.354
56.896
56.1453
56.1021
55.9990
55.9897
56.700
56.1717
56.2559
56.2228
56.1521
56.1690
56.2413
56.3139
56.3494
56.2491
56.1678
56.2155
56.3064
56.3796
56.4457
56.4150
56.3719
56.3792
56.4348
56.5277
56.5776
56.4600
56.3811
56.4512
56.5681
56.6405
56.6407
56.5690
56.5466
56.5770
56.6289
56.6901
56.6918
56.5923
56.5509
56.6145
56.7081
56.7880
56.7819
56.7111
56.7130
56.7707
56.8444
56.8944
56.8076
56.6877
56.6879
56.7699
56.8436
56.9040
56.8792
56.8276
56.8224
56.8544
56.9280
56.9897
56.8945
56.7955
56.8458
56.9531
57.245
57.295
56.9507
56.9194
56.9533
57.0
57.612
57.750
56.9738
56.9215
56.9687
57.600
57.1560
57.1702
57.1040
57.963
57.1496
57.2237
57.2820
57.2082
57.1058
57.1259
57.2139
57.2792
57.3407
57.3300
57.2960
57.2932
57.3396
57.4300
57.4818
57.3703
57.2993
57.3710
57.4809
57.5454
57.5364
57.4662
57.4508
57.4842
57.5328
57.5967
57.5784
57.4768
57.4550
57.5300
57.6188
57.6905
57.6601
57.6040
57.6206
57.6770
57.7406
57.7612
57.6435
57.5627
57.6043
57.6941
57.7650
57.7982
57.7514
57.7128
57.7109
57.7583
57.8500
57.8384
57.7207
57.6952
57.7817
57.8725
57.9169
57.8588
57.7993
57.8050
57.8479
57.9038
57.9493
57.8698
57.7884
57.8113
57.9003
57.9958
58.353
57.9702
57.9416
57.9823
58.519
58.1168
58.710
57.9646
57.9579
58.349
58.1118
58.1787
58.1713
58.1297
58.1208
58.1602
58.2463
58.2991
58.1983
58.1303
58.1929
58.2917
58.3587
58.3486
58.2785
58.2589
58.2846
58.3374
58.4043
58.3697
58.2732
58.2655
58.3429
58.4278
58.4905
58.4389
58.3944
58.4146
58.4719
58.5320
58.5125
58.3844
58.3421
58.4090
58.4895
58.5523
58.5507
58.5014
58.4728
58.4831
58.5516
58.6227
58.5390
58.4442
58.4805
58.5817
58.6476
58.6357
58.5597
58.5400
58.5716
58.6145
58.6764
58.6563
58.5555
58.5270
58.5971
58.6867
58.7638
58.7218
58.6676
58.6848
58.7486
58.8152
58.8045
58.6905
58.6527
58.7164
58.8011
58.8810
58.8998
58.8523
58.8229
58.8545
58.9374
59.75
58.9144
58.8202
58.8700
58.9723
59.425
59.438
58.9740
58.9539
58.9805
59.244
59.868
59.543
58.9631
58.9502
59.232
59.1056
59.1591
59.1103
59.682
59.906
59.1430
59.2016
59.1712
59.482
59.175
59.863
59.1610
59.2245
59.2100
59.1597
59.1438
59.1676
59.2400
59.2707
59.1624
59.963
59.1600
59.2514
59.3009
59.2644
59.1971
59.1939
59.2252
59.2783
59.3314
59.2644
59.1770
59.1919
59.2674
59.3613
59.3972
59.3266
59.2977
59.3405
59.4065
59.4583
59.3807
59.2879
59.3085
59.3822
59.4507
59.5108
59.4849
59.4431
59.4422
59.4963
59.5877
59.5605
59.4462
59.4419
59.5354
59.6119
59.6481
59.5941
59.5487
59.5516
59.5854
59.6453
59.6581
59.5630
59.5240
59.5802
59.6606
59.7285
59.6948
59.6407
59.6529
59.6998
59.7585
59.7555
59.6255
59.5674
59.6235
59.6968
59.7555
59.7535
59.7067
59.6843
59.7013
59.7694
59.8222
59.7187
59.6357
59.6813
59.7691
59.8229
59.7937
59.7252
59.7139
59.7392
59.7841
59.8373
59.7722
59.6884
59.6957
59.7750
59.8672
59.8979
59.8259
59.8061
59.8454
59.9052
59.9442
59.8616
59.7688
59.7861
59.8657
59.9360
59.9832
59.9494
59.9244
59.9303
59.9866
60.725
60.193
59.9105
59.9309
60.242
60.916
60.1016
60.304
59.9962
60.48
60.514
60.1170
60.882
59.9955
59.9818
60.445
60.1266
60.1788
60.1230
60.854
60.1073
60.1547
60.2089
60.1508
60.323
60.142
60.813
60.1465
60.1989
60.1636
60.1151
60.1041
60.1395
60.2170
60.2038
60.821
60.556
60.1320
60.2029
60.2288
60.1591
60.1142
60.1253
60.1579
60.2098
60.2173
60.1195
60.745
60.1253
60.2085
60.2864
60.2544
60.1976
60.2039
60.2536
60.3139
60.2899
60.1736
60.1400
60.2073
60.2796
60.3481
60.3406
60.2989
60.2889
60.3255
60.4046
60.4197
60.3022
60.2640
60.3395
60.4238
60.4672
60.4139
60.3591
60.3570
60.3802
60.4328
60.4544
60.3656
60.3086
60.3503
60.4354
60.5058
60.4785
60.4220
60.4255
60.4665
60.5197
60.5060
60.3768
60.3155
60.3732
60.4481
60.5122
60.4965
60.4407
60.4150
60.4375
60.5068
60.5266
60.4097
60.3536
60.4162
60.4952
60.5360
60.4836
60.4188
60.4224
60.4552
60.5039
60.5237
60.4291
60.3660
60.3997
60.4783
60.5648
60.5430
60.4837
60.4855
60.5339
60.5924
60.5841
60.4656
60.4188
60.4733
60.5445
60.6125
60.6153
60.5657
60.5438
60.5797
60.6605
60.6917
60.5736
60.5185
60.5883
60.6691
60.7138
60.6696
60.6110
60.6064
60.6314
60.6836
60.7055
60.6125
60.5531
60.5947
60.6725
60.7418
60.7130
60.6549
60.6573
60.7034
60.7579
60.7391
60.6120
60.5580
60.6169
60.6838
60.7345
60.7241
60.6764
60.6564
60.6777
60.7445
60.7674
60.6452
60.5873
60.6511
60.7250
60.7614
60.6990
60.6450
60.6511
60.6861
60.7322
60.7400
60.6423
60.5907
60.6323
60.7099
60.7898
60.7652
60.7038
60.7028
60.7452
60.8006
60.7825
60.6684
60.6400
60.6976
60.7663
60.8312
60.8181
60.7757
60.7598
60.7974
60.8800
60.8818
60.7640
60.7303
60.8068
60.8821
60.9145
60.8596
60.8143
60.8139
60.8379
60.8882
60.8917
60.7909
60.7452
60.7960
60.8763
60.9397
60.8942
60.8439
60.8556
60.8962
60.9465
60.8994
60.7694
60.7389
60.8013
60.8660
60.9201
60.8879
60.8367
60.8189
60.8440
60.9157
60.8908
60.7666
60.7443
60.8271
60.8951
60.9100
60.8375
60.7906
60.8009
60.8373
60.8893
60.8698
60.7666
60.7287
60.7826
60.8669
60.9367
60.8845
60.8311
60.8458
60.8980
60.9494
60.8895
60.7877
60.7835
60.8493
60.9093
60.9647
60.9341
60.8933
60.8907
60.9424
61.234
60.9805
60.8660
60.8754
60.9631
61.243
61.304
60.9678
60.9320
60.9403
60.9766
61.303
60.9885
60.8906
60.8796
60.9436
61.234
61.534
60.9886
60.9623
60.9861
61.370
61.711
60.9712
60.8651
60.8805
60.9539
61.139
61.368
60.9823
60.9382
60.9399
60.9912
61.602
60.9792
60.8770
60.9001
60.9815
61.330
61.141
60.9364
60.9136
60.9340
60.9702
61.113
60.9413
60.8523
60.8585
60.9295
61.133
61.313
60.9651
60.9393
60.9770
61.350
61.539
60.9422
60.8705
60.9045
60.9702
61.355
61.663
61.231
60.9908
61.102
61.821
61.1258
61.179
60.9450
61.25
61.839
61.1289
61.896
61.257
61.133
61.274
61.738
61.1083
61.243
60.9587
60.9925
61.625
61.1338
61.1100
61.480
61.469
61.811
61.1298
61.1108
60.9798
60.9211
60.9702
61.345
61.922
61.764
61.294
61.33
61.219
61.932
61.1001
60.9781
60.9227
60.9858
61.569
61.842
61.144
60.9557
60.9578
60.9876
61.372
61.357
60.9393
60.8880
60.9365
61.184
61.937
61.514
60.9940
60.9977
61.459
61.975
61.457
60.9292
60.9101
60.9724
61.360
61.955
61.758
61.335
61.287
61.697
61.1478
61.1155
61.15
60.9893
61.714
61.1370
61.1519
61.824
61.362
61.421
61.800
61.1389
61.1043
61.70
60.9829
61.432
61.1192
61.1573
61.959
61.609
61.817
61.1229
61.1546
61.690
60.9615
60.9598
61.243
61.847
61.1125
61.648
61.206
61.156
61.595
61.1281
61.609
60.9507
60.9597
61.412
61.968
61.806
61.12
60.9694
60.9838
61.172
61.578
60.9985
60.9086
60.9066
60.9738
61.607
61.847
61.117
60.9845
61.147
61.708
61.939
60.9888
60.9068
60.9345
61.15
61.628
61.887
61.383
61.62
61.241
61.981
61.1502
61.463
60.9655
61.142
61.992
61.1488
61.1099
61.424
61.241
61.460
61.876
61.1167
61.305
60.9599
60.9872
61.570
61.1253
61.1057
61.442
61.365
61.757
61.1246
61.1108
60.9843
60.9174
60.9564
61.239
61.816
61.653
61.116
60.9798
60.9895
61.502
61.730
60.9591
60.8949
60.9547
61.274
61.613
60.9966
60.9334
60.9326
60.9587
60.9986
61.33
60.9062
60.8517
60.8956
60.9733
61.431
61.78
60.9507
60.9515
60.9926
61.442
61.127
60.8924
60.8589
60.9189
60.9833
61.463
61.280
60.9770
60.9628
60.9992
61.775
61.705
60.9530
60.9246
60.9998
61.685
61.928
61.279
60.9783
60.9753
61.41
61.557
61.377
60.9367
60.9021
60.9573
61.347
61.855
61.312
60.9847
60.9916
61.332
61.771
61.80
60.8869
60.8687
60.9324
60.9962
61.336
60.9886
60.9360
60.9245
60.9595
61.294
60.9831
60.8659
60.8558
60.9289
60.9889
60.9853
60.9026
60.8662
60.8793
60.9096
60.9590
60.9157
60.8129
60.7959
60.8581
60.9389
60.9854
60.9201
60.8739
60.8913
60.9432
60.9856
60.9035
60.8045
60.8096
60.8704
60.9322
60.9753
60.9376
60.8974
60.9012
60.9541
61.241
60.9529
60.8515
60.8737
60.9581
61.112
60.9981
60.9224
60.8877
60.9037
60.9422
60.9988
60.9389
60.8389
60.8386
60.9074
60.9849
61.0
60.9347
60.9076
60.9260
60.9705
60.9906
60.8766
60.7754
60.7951
60.8698
60.9290
60.9447
60.8942
60.8538
60.8535
60.9023
60.9548
60.8576
60.7643
60.7931
60.8707
60.9162
60.8858
60.8090
60.7946
60.8203
60.8602
60.8899
60.8099
60.7271
60.7370
60.8091
60.8915
60.8947
60.8257
60.8060
60.8407
60.8934
60.9050
60.7922
60.7238
60.7648
60.8268
60.8843
60.9010
60.8600
60.8265
60.8449
60.9092
60.9517
60.8437
60.7706
60.8282
60.9109
60.9553
60.9175
60.8479
60.8283
60.8474
60.8968
60.9242
60.8348
60.7641
60.7822
60.8489
60.9205
60.9070
60.8455
60.8359
60.8680
60.9137
60.9032
60.7798
60.7123
60.7589
60.8230
60.8743
60.8611
60.7986
60.7686
60.7835
60.8477
60.8679
60.7512
60.6811
60.7331
60.8060
60.8445
60.7954
60.7288
60.7248
60.7452
60.7811
60.7977
60.7047
60.6346
60.6645
60.7402
60.8149
60.7881
60.7156
60.7082
60.7522
60.8090
60.7983
60.6833
60.6373
60.6864
60.7486
60.8053
60.8011
60.7558
60.7296
60.7566
60.8269
60.8453
60.7301
60.6760
60.7385
60.8116
60.8511
60.7998
60.7406
60.7307
60.7559
60.8085
60.8217
60.7220
60.6590
60.6939
60.7665
60.8351
60.7973
60.7356
60.7303
60.7663
60.8149
60.7866
60.6559
60.6078
60.6592

END