=~=~=~=~=~=~=~=~=~=~=~= PuTTY log 2025.04.24 08:59:04 =~=~=~=~=~=~=~=~=~=~=~=




Speed (Hz)
60.613
60.3289
60.6029
60.6809
60.6643
60.6210
60.6110
60.5602
60.4824
60.4520
60.4610
60.5137
60.5021
60.3603
60.2784
60.3247
60.3843
60.4015
60.3335
60.2520
60.2289
60.2345
60.2725
60.2875
60.1810
60.1039
60.1289
60.1981
60.2586
60.2317
60.1485
60.1270
60.1558
60.1970
60.1950
60.595
59.9677
59.9940
60.639
60.1181
60.1264
60.671
60.236
60.165
60.748
60.1308
60.322
59.9187
59.9370
60.192
60.727
60.450
59.9592
59.9347
59.9563
59.9960
60.377
59.9761
59.8747
59.8616
59.9303
60.190
60.574
59.9842
59.9301
59.9575
60.143
60.537
59.9764
59.8666
59.8670
59.9360
59.9988
60.447
60.67
59.9645
59.9647
60.176
60.949
60.528
59.9279
59.9133
59.9961
60.658
60.845
60.121
59.9597
59.9601
59.9869
60.406
60.319
59.9263
59.8862
59.9475
60.281
60.833
60.329
59.9737
59.9751
60.137
60.598
60.310
59.8973
59.8508
59.9073
59.9681
60.227
60.7
59.9503
59.9273
59.9410
60.63
60.296
59.9129
59.8433
59.9006
59.9772
60.127
59.9544
59.8840
59.8764
59.9076
59.9607
59.9898
59.8973
59.8222
59.8436
59.9178
60.28
60.30
59.9266
59.9012
59.9382
59.9941
60.90
59.9002
59.8192
59.8495
59.9242
59.9913
60.174
59.9659
59.9339
59.9533
60.178
60.900
60.15
59.8946
59.9109
59.9918
60.505
60.478
59.9773
59.9405
59.9555
59.9972
60.541
60.39
59.9020
59.8929
59.9595
60.353
60.654
60.44
59.9616
59.9797
60.204
60.526
59.9782
59.8615
59.8537
59.9233
59.9887
60.326
59.9861
59.9324
59.9194
59.9522
60.215
59.9998
59.8735
59.8339
59.9029
59.9710
59.9939
59.9238
59.8694
59.8772
59.9122
59.9645
59.9601
59.8578
59.8034
59.8440
59.9213
59.9972
59.9664
59.9006
59.8970
59.9411
60.3
59.9851
59.8627
59.8139
59.8653
59.9326
59.9998
60.10
59.9461
59.9221
59.9467
60.197
60.562
59.9427
59.8641
59.9188
60.0
60.482
60.133
59.9436
59.9251
59.9484
59.9967
60.313
59.9462
59.8653
59.8837
59.9566
60.323
60.337
59.9666
59.9419
59.9676
60.142
60.371
59.9251
59.8260
59.8412
59.9105
59.9766
60.27
59.9417
59.9007
59.8950
59.9405
60.68
59.9351
59.8161
59.8192
59.9037
59.9575
59.9544
59.8768
59.8456
59.8638
59.9003
59.9485
59.9082
59.8083
59.7891
59.8471
59.9240
59.9803
59.9208
59.8682
59.8809
59.9285
59.9728
59.9208
59.8104
59.8017
59.8673
59.9332
59.9903
59.9641
59.9154
59.9077
59.9467
60.282
60.223
59.8951
59.8538
59.9315
60.83
60.357
59.9812
59.9262
59.9228
59.9517
60.86
60.170
59.9105
59.8507
59.8927
59.9699
60.416
60.148
59.9462
59.9354
59.9755
60.271
60.211
59.8907
59.8157
59.8538
59.9213
59.9843
59.9869
59.9318
59.9010
59.9065
59.9654
60.152
59.9143
59.8189
59.8555
59.9382
59.9878
59.9524
59.8745
59.8543
59.8816
59.9207
59.9633
59.8966
59.8030
59.8015
59.8694
59.9582
59.9870
59.9184
59.8769
59.8985
59.9575
59.9996
59.9119
59.8104
59.8282
59.8976
59.9643
60.142
59.9697
59.9286
59.9294
59.9855
60.643
60.78
59.8856
59.8832
59.9741
60.393
60.449
59.9715
59.9295
59.9405
59.9733
60.300
60.138
59.8998
59.8704
59.9309
60.146
60.632
60.88
59.9539
59.9564
59.9985
60.490
60.91
59.8758
59.8341
59.8947
59.9603
60.145
59.9889
59.9360
59.9167
59.9354
60.55
60.139
59.8835
59.8139
59.8765
59.9594
60.21
59.9439
59.8716
59.8668
59.8996
59.9481
59.9699
59.8745
59.8011
59.8379
59.9104
59.9859
59.9754
59.9087
59.8921
59.9311
59.9850
59.9951
59.8853
59.8127
59.8528
59.9173
59.9822
60.34
59.9568
59.9313
59.9428
60.76
60.625
59.9712
59.8678
59.8997
59.9899
60.458
60.315
59.9537
59.9199
59.9354
59.9777
60.323
59.9767
59.8761
59.8770
59.9458
60.188
60.449
59.9822
59.9419
59.9545
59.9994
60.362
59.9596
59.8389
59.8277
59.8979
59.9635
60.31
59.9615
59.9177
59.9071
59.9403
60.116
59.9762
59.8544
59.8293
59.9112
59.9761
59.9831
59.9051
59.8555
59.8620
59.8949
59.9487
59.9435
59.8362
59.7887
59.8370
59.9242
60.6
59.9588
59.8886
59.8964
59.9443
59.9910
59.9642
59.8395
59.7953
59.8588
59.9257
59.9917
59.9891
59.9359
59.9148
59.9482
60.277
60.544
59.9309
59.8594
59.9202
60.76
60.514
60.100
59.9406
59.9285
59.9495
59.9978
60.359
59.9469
59.8650
59.8937
59.9706
60.432
60.427
59.9727
59.9542
59.9800
60.236
60.428
59.9342
59.8350
59.8539
59.9218
59.9857
59.9988
59.9449
59.9057
59.9091
59.9591
60.280
59.9534
59.8424
59.8494
59.9280
59.9850
59.9736
59.8944
59.8615
59.8848
59.9183
59.9693
59.9259
59.8280
59.8065
59.8645
59.9536
60.102
59.9502
59.8958
59.9153
59.9630
60.80
59.9464
59.8333
59.8217
59.8915
59.9557
60.154
59.9865
59.9457
59.9388
59.9838
60.650
60.472
59.9209
59.8869
59.9603
60.329
60.633
60.31
59.9481
59.9459
59.9782
60.350
60.398
59.9294
59.8805
59.9303
60.75
60.720
60.364
59.9770
59.9687
60.33
60.543
60.370
59.9083
59.8440
59.8850
59.9562
60.188
60.88
59.9552
59.9260
59.9373
59.9998
60.414
59.9296
59.8351
59.8800
59.9605
60.67
59.9679
59.8905
59.8745
59.8946
59.9337
59.9763
59.9003
59.8147
59.8283
59.9013
59.9911
60.122
59.9379
59.9038
59.9350
59.9867
60.115
59.9104
59.8183
59.8401
59.9146
59.9782
60.161
59.9743
59.9395
59.9524
60.126
60.848
60.156
59.8979
59.9017
59.9883
60.478
60.535
59.9805
59.9433
59.9548
59.9864
60.424
60.71
59.9091
59.8975
59.9611
60.324
60.766
60.181
59.9665
59.9729
60.147
60.560
59.9961
59.8638
59.8362
59.9040
59.9751
60.243
59.9880
59.9392
59.9276
59.9547
60.298
60.185
59.8899
59.8326
59.8995
59.9753
60.97
59.9461
59.8782
59.8801
59.9132
59.9651
59.9795
59.8767
59.8111
59.8565
59.9386
60.200
59.9976
59.9235
59.9148
59.9555
60.24
60.28
59.8869
59.8293
59.8796
59.9468
60.144
60.201
59.9678
59.9455
59.9710
60.453
60.916
59.9818
59.8884
59.9347
60.252
60.781
60.523
59.9757
59.9536
59.9705
60.187
60.638
59.9939
59.9002
59.9100
59.9910
60.662
60.727
59.9998
59.9740
60.58
60.525
60.776
59.9745
59.8628
59.8707
59.9359
59.9990
60.327
59.9830
59.9408
59.9393
59.9823
60.518
59.9964
59.8735
59.8618
59.9410
60.16
60.29
59.9188
59.8772
59.8894
59.9251
59.9813
59.9603
59.8555
59.8237
59.8736
59.9594
60.248
59.9655
59.9004
59.9094
59.9627
60.127
59.9655
59.8451
59.8250
59.8912
59.9563
60.144
59.9971
59.9475
59.9330
59.9652
60.449
60.539
59.9249
59.8842
59.9597
60.322
60.645
60.98
59.9460
59.9369
59.9641
60.131
60.388
59.9444
59.8787
59.9167
59.9947
60.644
60.409
59.9757
59.9615
59.9926
60.429
60.443
59.9175
59.8362
59.8766
59.9481
60.84
60.120
59.9544
59.9260
59.9387
59.9951
60.494
59.9544
59.8495
59.8714
59.9530
59.9984
59.9764
59.9005
59.8818
59.9040
59.9437
59.9875
59.9272
59.8308
59.8368
59.9077
59.9916
60.241
59.9543
59.9146
59.9407
59.9981
60.326
59.9446
59.8432
59.8524
59.9275
59.9994
60.441
59.9993
59.9583
59.9553
60.127
60.896
60.516
59.9309
59.9253
60.83
60.751
60.892
60.165
59.9701
59.9753
60.91
60.668
60.530
59.9468
59.9159
59.9718
60.482
60.1034
60.503
59.9966
60.7
60.412
60.884
60.463
59.9216
59.8792
59.9385
60.58
60.637
60.379
59.9817
59.9622
59.9823
60.483
60.634
59.9483
59.8884
59.9501
60.220
60.530
59.9950
59.9286
59.9216
59.9446
59.9909
60.185
59.9264
59.8542
59.8874
59.9633
60.479
60.433
59.9750
59.9562
59.9888
60.404
60.459
59.9292
59.8646
59.9103
59.9763
60.432
60.595
60.122
59.9890
60.107
60.791
60.1323
60.334
59.9347
59.9714
60.595
60.1158
60.968
60.175
59.9859
59.9984
60.426
60.985
60.365
59.9444
59.9502
60.232
60.981
60.1188
60.529
60.173
60.341
60.741
60.1088
60.201
59.9003
59.9019
59.9747
60.407
60.764
60.278
59.9837
59.9785
60.147
60.831
60.373
59.9147
59.8960
59.9718
60.387
60.509
59.9687
59.9233
59.9390
59.9726
60.165
59.9995
59.9016
59.8703
59.9217
60.49
60.731
60.240
59.9617
59.9676
60.142
60.608
60.239
59.9066
59.8776
59.9341
59.9969
60.628
60.576
60.94
59.9949
60.290
60.1114
60.1242
59.9994
59.9421
60.125
60.853
60.1162
60.692
60.30
59.9901
60.136
60.755
60.1041
60.71
59.9410
59.9768
60.550
60.1275
60.1073
60.372
60.245
60.529
60.978
60.1013
59.9749
59.8911
59.9318
60.86
60.702
60.758
60.179
59.9861
59.9990
60.552
60.1018
60.39
59.9056
59.9291
60.125
60.630
60.344
59.9554
59.9309
59.9553
59.9983
60.490
59.9835
59.8898
59.8943
59.9673
60.516
60.832
60.74
59.9609
59.9790
60.386
60.854
59.9993
59.8887
59.8977
59.9719
60.394
60.847
60.505
60.142
60.223
60.757
60.1530
60.978
59.9770
59.9711
60.516
60.1107
60.1222
60.512
60.45
60.141
60.483
60.1078
60.892
59.9802
59.9481
60.84
60.908
60.1443
60.899
60.302
60.363
60.783
60.1192
60.667
59.9311
59.8909
59.9489
60.211
60.871
60.558
59.9987
59.9817
60.65
60.804
60.835
59.9530
59.8845
59.9469
60.206
60.603
59.9945
59.9256
59.9157
59.9504
59.9995
60.194
59.9273
59.8574
59.8922
59.9735
60.557
60.419
59.9624
59.9426
59.9892
60.324
60.392
59.9265
59.8590
59.8973
59.9594
60.275
60.495
60.2
59.9766
60.2
60.682
60.1205
60.145
59.9193
59.9602
60.407
60.882
60.619
59.9924
59.9702
59.9856
60.225
60.741
60.143
59.9238
59.9325
60.41
60.734
60.859
60.168
59.9892
60.114
60.610
60.974
59.9915
59.8713
59.8758
59.9520
60.157
60.560
60.112
59.9663
59.9575
59.9982
60.705
60.207
59.8945
59.8820
59.9649
60.252
60.289
59.9455
59.9027
59.9100
59.9396
59.9904
59.9798
59.8790
59.8410
59.8983
59.9792
60.450
59.9964
59.9333
59.9395
59.9845
60.378
59.9997
59.8784
59.8507
59.9147
59.9786
60.394
60.272
59.9774
59.9623
59.9986
60.833
60.979
59.9771
59.9180
59.9812
60.583
60.964
60.473
59.9784
59.9628
59.9816
60.385
60.691
59.9750
59.9095
59.9484
60.237
60.930
60.760
60.74
59.9948
60.276
60.771
60.779
59.9460
59.8626
59.9036
59.9765
60.353
60.426
59.9810
59.9509
59.9566
60.157
60.746
59.9798
59.8765
59.9023
59.9809
60.281
60.5
59.9185
59.8977
59.9223
59.9594
60.82
59.9420
59.8495
59.8484
59.9197
60.74
60.464
59.9783
59.9331
59.9572
60.81
60.452
59.9624
59.8611
59.8640
59.9296
59.9946
60.454
60.99
59.9704
59.9761
60.323
60.1111
60.686
59.9444
59.9299
60.136
60.782
60.953
60.234
59.9773
59.9788
60.186
60.767
60.593
59.9537
59.9173
59.9739
60.497
60.1062
60.668
60.93
60.132
60.569
60.1025
60.616
59.9310
59.8885
59.9484
60.160
60.709
60.482
60.27
59.9833
60.52
60.718
60.778
59.9489
59.8900
59.9552
60.298
60.646
60.80
59.9435
59.9456
59.9738
60.177
60.402
59.9527
59.8795
59.9062
59.9897
60.754
60.677
59.9957
59.9769
60.200
60.727
60.802
59.9615
59.8898
59.9311
60.72
60.704
60.935
60.474
60.213
60.406
60.1052
60.1527
60.559
59.9645
60.42
60.928
60.1455
60.1244
60.516
60.273
60.513
60.918
60.1387
60.715
59.9770
59.9764
60.462
60.1223
60.1479
60.814
60.457
60.706
60.1219
60.1542
60.556
59.9417
59.9411
60.85
60.728
60.1073
60.585
60.126
60.56
60.418
60.1181
60.702
59.9474
59.9284
60.129
60.815
60.915
60.120
59.9681
59.9794
60.135
60.666
60.398
59.9311
59.9015
59.9598
60.404
60.1067
60.557
59.9963
60.40
60.570
60.1079
60.611
59.9436
59.9200
59.9870
60.545
60.1080
60.897
60.455
60.372
60.758
60.1504
60.1507
60.285
59.9826
60.624
60.1453
60.1780
60.1206
60.582
60.513
60.722
60.1228
60.1421
60.467
59.9886
60.312
60.1072
60.1783
60.1474
60.858
60.857
60.1225
60.1654
60.1617
60.352
59.9620
60.72
60.748
60.1313
60.1279
60.693
60.406
60.534
60.1140
60.1652
60.580
59.9729
60.82
60.914
60.1377
60.926
60.163
59.9987
60.226
60.698
60.1084
60.267
59.9383
59.9499
60.255
60.1156
60.1382
60.660
60.293
60.592
60.1175
60.1441
60.494
59.9508
59.9696
60.413
60.1064
60.1423
60.1025
60.688
60.760
60.1365
60.2056
60.1288
60.202
60.382
60.1267
60.1851
60.1787
60.1033
60.633
60.716
60.1091
60.1678
60.1251
60.248
60.37
60.681
60.1450
60.1880
60.1299
60.837
60.965
60.1422
60.1834
60.1079
59.9741
59.9624
60.264
60.910
60.1364
60.928
60.397
60.234
60.673
60.1406
60.1181
59.9901
59.9572
60.326
60.1018
60.1190
60.411
59.9861
59.9881
60.214
60.697
60.700
59.9738
59.9226
59.9671
60.447
60.1217
60.861
60.177
60.194
60.679
60.1202
60.1042
59.9818
59.9322
59.9810
60.480
60.1180
60.1144
60.645
60.464
60.744
60.1534
60.1853
60.647
59.9971
60.536
60.1286
60.1692
60.1315
60.657
60.444
60.663
60.1159
60.1492
60.619
59.9906
60.230
60.965
60.1643
60.1589
60.962
60.763
60.1041
60.1492
60.1605
60.347
59.9463
59.9777
60.454
60.1119
60.1213
60.683
60.304
60.324
60.839
60.1496
60.657
59.9547
59.9716
60.565
60.1114
60.923
60.111
59.9806
59.9980
60.373
60.860
60.329
59.9345
59.9282
59.9904
60.765
60.1225
60.505
60.20
60.257
60.798
60.1210
60.465
59.9383
59.9344
59.9980
60.623
60.1248
60.1027
60.543
60.483
60.923
60.1777
60.1408
60.185
60.27
60.862
60.1526
60.1728
60.1018
60.497
60.493
60.775
60.1376
60.1279
60.255
59.9876
60.449
60.1241
60.1808
60.1281
60.754
60.780
60.1183
60.1639
60.1198
59.9881
59.9436
60.52
60.726
60.1269
60.1024
60.495
60.279
60.505
60.1215
60.1318
60.108
59.9481
60.39
60.766
60.1084
60.458
59.9814
59.9803
60.129
60.544
60.730
59.9849
59.9215
59.9547
60.298
60.1111
60.999
60.322
60.146
60.529
60.1047
60.1089
59.9973
59.9289
59.9689
60.346
60.998
60.1170
60.671
60.361
60.533
60.1255
60.1874
60.893
59.9971
60.292
60.1131
60.1618
60.1371
60.626
60.377
60.521
60.945
60.1482
60.861
59.9996
60.22
60.716
60.1493
60.1691
60.975
60.657
60.879
60.1323
60.1572
60.556
59.9413
59.9469
60.228
60.881
60.1182
60.674
60.279
60.242
60.692
60.1315
60.758
59.9569
59.9422
60.219
60.866
60.795
59.9954
59.9542
59.9726
60.72
60.579
60.282
59.9258
59.8983
59.9568
60.437
60.1058
60.524
59.9871
59.9938
60.411
60.889
60.419
59.9217
59.9006
59.9652
60.305
60.933
60.727
60.297
60.212
60.536
60.1300
60.1271
60.61
59.9603
60.315
60.1068
60.1394
60.811
60.126
59.9991
60.282
60.905
60.1124
60.104
59.9507
59.9936
60.693
60.1391
60.1155
60.441
60.353
60.697
60.1149
60.1051
59.9726
59.9001
59.9459
60.194
60.858
60.790
60.236
59.9961
60.45
60.636
60.1126
60.66
59.9113
59.9478
60.275
60.735
60.371
59.9575
59.9405
59.9672
60.161
60.653
59.9926
59.9005
59.9110
59.9836
60.739
60.880
60.115
59.9764
60.95
60.619
60.892
59.9951
59.9002
59.9218
59.9917
60.545
60.959
60.549
60.185
60.220
60.855
60.1620
60.976
59.9797
59.9817
60.678
60.1283
60.1333
60.595
60.135
60.173
60.531
60.1104
60.850
59.9749
59.9503
60.214
60.1048
60.1496
60.904
60.385
60.538
60.927
60.1333
60.717
59.9449
59.9140
59.9741
60.434
60.953
60.632
60.115
59.9992
60.286
60.996
60.961
59.9662
59.9161
59.9824
60.461
60.690
60.42
59.9460
59.9466
59.9736
60.245
60.418
59.9487
59.8890
59.9250
60.85
60.835
60.528
59.9810
59.9741
60.205
60.691
60.560
59.9319
59.8801
59.9293
60.30
60.700
60.749
60.284
60.111
60.322
60.1058
60.1415
60.332
59.9510
59.9961
60.781
60.1224
60.934
60.280
60.33
60.176
60.648
60.1149
60.467
59.9630
59.9783
60.498
60.1304
60.1332
60.594
60.294
60.523
60.1009
60.1181
60.123
59.9083
59.9209
59.9934
60.589
60.891
60.376
59.9977
59.9955
60.432
60.1139
60.462
59.9247
59.9239
60.37
60.579
60.543
59.9775
59.9452
59.9573
59.9892
60.385
60.58
59.9128
59.8914
59.9495
60.303
60.862
60.244
59.9710
59.9866
60.380
60.809
60.251
59.9099
59.8984
59.9677
60.331
60.877
60.607
60.192
60.169
60.623
60.1425
60.1248
60.4
59.9631
60.391
60.1104
60.1418
60.810
60.229
60.212
60.494
60.1030
60.1115
60.138
59.9636
60.95
60.836
60.1549
60.1227
60.553
60.485
60.825
60.1290
60.1085
59.9783
59.9183
59.9720
60.375
60.1002
60.896
60.285
60.38
60.162
60.815
60.1240
60.96
59.9219
59.9639
60.417
60.816
60.334
59.9627
59.9527
59.9754
60.216
60.587
59.9763
59.8947
59.9067
59.9798
60.687
60.852
60.96
59.9755
60.41
60.583
60.875
59.9827
59.8896
59.9136
59.9807
60.465
60.856
60.423
60.78
60.161
60.746
60.1460
60.711
59.9597
59.9723
60.608
60.1185
60.1096
60.291
59.9935
60.118
60.569
60.1118
60.632
59.9612
59.9452
60.107
60.868
60.1213
60.612
60.169
60.301
60.716
60.1072
60.340
59.9121
59.8928
59.9620
60.284
60.787
60.368
59.9821
59.9637
59.9948
60.736
60.526
59.9283
59.8844
59.9567
60.219
60.410
59.9652
59.9090
59.9153
59.9480
60.63
60.25
59.8957
59.8404
59.8847
59.9727
60.529
60.198
59.9469
59.9435
59.9848
60.394
60.271
59.9036
59.8503
59.9001
59.9679
60.408
60.473
59.9982
59.9779
60.7
60.754
60.1160
59.9998
59.9193
59.9775
60.588
60.1036
60.642
59.9892
59.9748
59.9950
60.425
60.886
60.77
59.9203
59.9478
60.289
60.1049
60.1094
60.330
59.9991
60.343
60.841
60.1022
59.9861
59.8849
59.9100
59.9807
60.491
60.725
60.181
59.9802
59.9834
60.348
60.983
60.219
59.9051
59.9160
60.56
60.574
60.473
59.9663
59.9313
59.9459
59.9815
60.378
60.9
59.9087
59.8935
59.9572
60.428
60.894
60.251
59.9730
59.9903
60.466
60.915
60.208
59.9109
59.9004
59.9680
60.378
60.994
60.738
60.221
60.126
60.588
60.1394
60.1111
59.9856
59.9575
60.383
60.1053
60.1301
60.645
60.161
60.184
60.457
60.1011
60.1039
60.9
59.9494
60.5
60.802
60.1395
60.907
60.300
60.288
60.639
60.1078
60.847
59.9625
59.9082
59.9573
60.255
60.885
60.738
60.179
59.9897
59.9994
60.604
60.887
59.9728
59.8935
59.9442
60.232
60.603
60.95
59.9340
59.9295
59.9567
59.9996
60.345
59.9510
59.8723
59.8962
59.9640
60.419
60.426
59.9749
59.9531
59.9855
60.409
60.619
59.9576
59.8743
59.9008
59.9787
60.494
60.720
60.247
59.9883
59.9982
60.581
60.1282
60.442
59.9269
59.9499
60.398
60.1011
60.949
60.215
59.9869
60.53
60.478
60.1064
60.532
59.9529
59.9465
60.82
60.790
60.1144
60.490
60.44
60.165
60.631
60.1057
60.315
59.9136
59.9009
59.9726
60.363
60.791
60.343
59.9848
59.9745
60.106
60.866
60.574
59.9323
59.8999
59.9773
60.490
60.700
59.9927
59.9391
59.9458
59.9817
60.372
60.369
59.9317
59.8775
59.9273
60.85
60.830
60.481
59.9817
59.9788
60.214
60.759
60.596
59.9410
59.9051
59.9627
60.266
60.915
60.908
60.382
60.159
60.450
60.1242
60.1556
60.365
59.9656
60.281
60.1110
60.1527
60.1080
60.375
60.225
60.496
60.1028
60.1400
60.518
59.9804
60.79
60.755
60.1522
60.1446
60.760
60.560
60.845
60.1308
60.1484
60.269
59.9368
59.9658
60.350
60.954
60.1081
60.512
60.139
60.185
60.723
60.1385
60.497
59.9359
59.9503
60.328
60.914
60.707
59.9892
59.9638
59.9886
60.200
60.668
60.202
59.9281
59.9131
59.9720
60.568
60.982
60.338
59.9862
60.100
60.570
60.965
60.282
59.9256
59.9254
59.9949
60.595
60.1071
60.658
60.262
60.267
60.760
60.1554
60.1118
59.9839
59.9737
60.632
60.1297
60.1459
60.762
60.286
60.314
60.624
60.1174
60.1039
60.19
59.9647
60.245
60.981
60.1474
60.978
60.395
60.468
60.873
60.1312
60.901
59.9542
59.9112
59.9771
60.438
60.967
60.748
60.174
59.9894
60.93
60.842
60.1071
59.9854
59.9136
59.9692
60.512
60.898
60.312
59.9556
59.9470
59.9751
60.200
60.521
59.9640
59.8886
59.9145
59.9885
60.678
60.645
59.9952
59.9753
60.158
60.691
60.783
59.9647
59.8970
59.9370
60.104
60.743
60.906
60.437
60.156
60.341
60.1035
60.1662
60.673
59.9632
59.9924
60.762
60.1363
60.1255
60.513
60.206
60.367
60.781
60.1313
60.664
59.9693
59.9769
60.504
60.1248
60.1458
60.843
60.466
60.636
60.1068
60.1404
60.568
59.9435
59.9387
60.95
60.755
60.1111
60.589
60.88
60.46
60.499
60.1251
60.721
59.9396
59.9202
60.64
60.706
60.820
60.95
59.9612
59.9706
60.36
60.582
60.390
59.9372
59.8989
59.9504
60.330
60.936
60.453
59.9823
59.9893
60.397
60.913
60.504
59.9321
59.9072
59.9708
60.362
60.963
60.762
60.220
60.72
60.459
60.1244
60.1297
59.9999
59.9470
60.217
60.1002
60.1331
60.774
60.109
59.9962
60.203
60.790
60.1073
60.182
59.9495
59.9803
60.526
60.1208
60.962
60.270
60.136
60.438
60.949
60.991
59.9673
59.8855
59.9180
59.9932
60.583
60.702
60.91
59.9727
59.9767
60.270
60.776
59.9808
59.8840
59.9149
59.9921
60.391
60.91
59.9300
59.9128
59.9288
59.9686
60.206
59.9540
59.8572
59.8593
59.9311
60.172
60.452
59.9704
59.9296
59.9577
60.88
60.417
59.9546
59.8553
59.8705
59.9444
60.59
60.512
60.121
59.9740
59.9750
60.290
60.1045
60.523
59.9309
59.9258
60.98
60.756
60.865
60.128
59.9670
59.9751
60.64
60.646
60.423
59.9328
59.8997
59.9645
60.499
60.1040
60.459
59.9954
59.9979
60.359
60.801
60.354
59.9040
59.8660
59.9262
59.9919
60.492
60.230
59.9705
59.9461
59.9646
60.408
60.548
59.9295
59.8632
59.9252
60.58
60.346
59.9720
59.9023
59.9049
59.9378
59.9822
60.64
59.9166
59.8399
59.8696
59.9512
60.316
60.253
59.9512
59.9311
59.9708
60.267
60.346
59.9154
59.8514
59.8926
59.9632
60.255
60.452
59.9964
59.9681
59.9872
60.532
60.1094
60.148
59.9255
59.9580
60.376
60.859
60.734
59.9990
59.9671
59.9824
60.313
60.866
60.253
59.9304
59.9288
59.9920
60.690
60.940
60.271
59.9936
60.141
60.552
60.928
60.59
59.8918
59.8874
59.9582
60.229
60.599
60.160
59.9761
59.9615
59.9977
60.698
60.309
59.9068
59.8832
59.9601
60.199
60.292
59.9496
59.9060
59.9197
59.9530
60.19
59.9878
59.8866
59.8458
59.8967
59.9799
60.512
60.59
59.9442
59.9510
59.9960
60.455
60.108
59.8902
59.8591
59.9268
59.9912
60.479
60.423
59.9901
59.9692
59.9997
60.839
60.1044
59.9858
59.9263
59.9883
60.686
60.1095
60.531
59.9915
59.9825
60.34
60.559
60.846
59.9905
59.9169
59.9536
60.255
60.972
60.779
60.60
59.9936
60.249
60.814
60.890
59.9626
59.8736
59.9082
59.9785
60.398
60.449
59.9914
59.9562
59.9649
60.212
60.825
59.9965
59.8863
59.9043
59.9823
60.369
60.169
59.9333
59.9145
59.9379
59.9771
60.217
59.9641
59.8671
59.8621
59.9311
60.167
60.571
59.9864
59.9391
59.9671
60.190
60.594
59.9851
59.8867
59.8960
59.9537
60.185
60.658
60.324
59.9941
59.9993
60.513
60.1292
60.850
59.9626
59.9524
60.383
60.1062
60.1221
60.481
60.27
60.23
60.354
60.933
60.781
59.9771
59.9464
59.9978
60.752
60.1288
60.779
60.272
60.266
60.701
60.1240
60.884
59.9523
59.9104
59.9696
60.332
60.870
60.568
60.25
59.9857
60.85
60.799
60.930
59.9648
59.9000
59.9629
60.429
60.774
60.187
59.9561
59.9549
59.9849
60.329
60.536
59.9602
59.8889
59.9175
59.9989
60.827
60.678
59.9984
59.9799
60.138
60.706
60.803
59.9663
59.8997
59.9409
60.117
60.821
60.950
60.459
60.217
60.429
60.1139
60.1632
60.582
59.9607
60.20
60.881
60.1440
60.1235
60.529
60.296
60.410
60.840
60.1377
60.679
59.9776
59.9871
60.559
60.1285
60.1482
60.785
60.398
60.567
60.1009
60.1406
60.457
59.9333
59.9361
60.112
60.792
60.1112
60.605
60.135
60.75
60.490
60.1175
60.656
59.9431
59.9261
60.18
60.686
60.748
59.9914
59.9407
59.9550
59.9912
60.486
60.243
59.9147
59.8813
59.9385
60.231
60.849
60.264
59.9672
59.9768
60.216
60.652
60.226
59.9136
59.8899
59.9522
60.187
60.815
60.588
60.58
59.9898
60.274
60.1090
60.1189
59.9924
59.9391
60.130
60.897
60.1247
60.660
59.9984
59.9858
60.119
60.720
60.981
60.9
59.9371
59.9730
60.484
60.1203
60.1003
60.317
60.177
60.531
60.978
60.943
59.9635
59.8842
59.9236
59.9950
60.581
60.573
60.30
59.9696
59.9735
60.311
60.795
59.9810
59.8869
59.9164
59.9970
60.506
60.187
59.9327
59.9075
59.9316
59.9765
60.232
59.9558
59.8660
59.8722
59.9429
60.330
60.618
59.9865
59.9425
59.9670
60.234
60.535
59.9691
59.8743
59.8844
59.9559
60.219
60.694
60.364
59.9943
59.9997
60.527
60.1260
60.692
59.9486
59.9437
60.314
60.953
60.1055
60.299
59.9828
59.9937
60.315
60.934
60.645
59.9609
59.9304
59.9884
60.747
60.1319
60.740
60.178
60.257
60.657
60.1088
60.577
59.9245
59.8885
59.9505
60.183
60.706
60.437
59.9964
59.9736
59.9938
60.638
60.704
59.9412
59.8809
59.9429
60.179
60.471
59.9818
59.9192
59.9167
59.9430
59.9979
60.206
59.9141
59.8470
59.8830
59.9642
60.394
60.216
59.9527
59.9412
59.9821
60.352
60.360
59.9152
59.8445
59.8836
59.9561
60.247
60.429
59.9995
59.9776
59.9933
60.588
60.1142
60.98
59.9182
59.9564
60.389
60.848
60.598
59.9856
59.9613
59.9772
60.241
60.814
60.154
59.9183
59.9209
59.9915
60.662
60.844
60.204
59.9885
60.44
60.439
60.757
59.9841
59.8731
59.8736
59.9427
60.47
60.391
59.9882
59.9445
59.9372
59.9769
60.533
60.13
59.8736
59.8574
59.9369
59.9988
60.30
59.9223
59.8794
59.8935
59.9306
59.9779
59.9575
59.8563
59.8192
59.8762
59.9586
60.281
59.9734
59.9129
59.9225
59.9677
60.187
59.9810
59.8596
59.8294
59.8911
59.9619
60.241
60.127
59.9596
59.9452
59.9735
60.508
60.644
59.9461
59.8909
59.9552
60.360
60.766
60.201
59.9509
59.9351
59.9584
60.149
60.438
59.9523
59.8834
59.9185
59.9940
60.703
60.546
59.9835
59.9681
59.9975
60.455
60.519
59.9249
59.8433
59.8804
59.9540
60.131
60.204
59.9674
59.9316
59.9314
59.9810
60.374
59.9400
59.8310
59.8569
59.9447
60.29
59.9745
59.8912
59.8715
59.8914
59.9264
59.9759
59.9160
59.8190
59.8140
59.8846
59.9702
60.119
59.9399
59.8909
59.9110
59.9669
60.103
59.9315
59.8184
59.8210
59.8912
59.9619
60.87
59.9737
59.9274
59.9218
59.9803
60.671
60.329
59.9094
59.8835
59.9645
60.287
60.457
59.9792
59.9279
59.9303
59.9621
60.195
60.91
59.9048
59.8665
59.9258
60.31
60.647
60.141
59.9505
59.9544
59.9903
60.377
60.66
59.8699
59.8155
59.8729
59.9491
60.70
59.9847
59.9267
59.9044
59.9242
59.9949
60.249
59.9073
59.8282
59.8777
59.9529
59.9915
59.9413
59.8723
59.8638
59.8886
59.9333
59.9592
59.8743
59.7971
59.8163
59.8970
59.9826
59.9871
59.9131
59.8863
59.9256
59.9719
59.9882
59.8833
59.8042
59.8361
59.9041
59.9660
59.9992
59.9526
59.9253
59.9376
60.6
60.667
59.9915
59.8800
59.8926
59.9819
60.389
60.391
59.9640
59.9313
59.9446
59.9841
60.386
59.9886
59.8915
59.8839
59.9491
60.250
60.618
59.9975
59.9573
59.9752
60.195
60.573
59.9884
59.8626
59.8409
59.9039
59.9677
60.158
59.9771
59.9276
59.9148
59.9434
60.151
59.9997
59.8723
59.8311
59.9054
59.9765
60.2
59.9248
59.8677
59.8731
59.9081
59.9573
59.9559
59.8532
59.7941
59.8374
59.9206
59.9986
59.9662
59.8954
59.8930
59.9407
59.9938
59.9863
59.8671
59.8204
59.8692
59.9322
59.9908
59.9893
59.9435
59.9231
59.9493
60.285
60.649
59.9543
59.8743
59.9288
60.130
60.593
60.246
59.9562
59.9314
59.9475
59.9937
60.428
59.9671
59.8819
59.8941
59.9672
60.367
60.387
59.9701
59.9456
59.9748
60.243
60.528
59.9442
59.8340
59.8502
59.9247
59.9835
60.96
59.9565
59.9123
59.9088
59.9534
60.262
59.9651
59.8455
59.8437
59.9241
59.9827
59.9837
59.9010
59.8611
59.8756
59.9084
59.9579
59.9275
59.8217
59.8018
59.8588
59.9422
60.48
59.9489
59.8859
59.8989
59.9549
60.17
59.9562
59.8392
59.8190
59.8800
59.9441
60.70
59.9883
59.9386
59.9233
59.9591
60.394
60.399
59.9201
59.8706
59.9461
60.291
60.584
60.1
59.9400
59.9368
59.9650
60.204
60.302
59.9222
59.8592
59.9014
59.9782
60.504
60.260
59.9559
59.9453
59.9797
60.319
60.349
59.9050
59.8283
59.8692
59.9433
59.9959
59.9940
59.9336
59.9001
59.9096
59.9615
60.129
59.9219
59.8278
59.8582
59.9393
59.9883
59.9602
59.8821
59.8605
59.8803
59.9188
59.9619
59.8969
59.7973
59.7902
59.8617
59.9520
59.9864
59.9271
59.8882
59.9127
59.9694
60.43
59.9233
59.8231
59.8321
59.9046
59.9643
60.65
59.9633
59.9216
59.9201
59.9769
60.565
60.71
59.8854
59.8796
59.9664
60.386
60.542
59.9789
59.9312
59.9328
59.9620
60.170
59.9967
59.8945
59.8666
59.9262
60.20
60.521
59.9996
59.9484
59.9572
59.9965
60.433
60.61
59.8731
59.8305
59.8952
59.9616
60.113
59.9722
59.9064
59.8950
59.9192
59.9965
60.127
59.8886
59.8243
59.8818
59.9604
59.9934
59.9376
59.8697
59.8628
59.8911
59.9390
59.9630
59.8694
59.7989
59.8288
59.9065
59.9872
59.9793
59.9061
59.8863
59.9262
59.9816
59.9934
59.8861
59.8151
59.8488
59.9131
59.9707
59.9930
59.9523
59.9246
59.9455
60.104
60.732
59.9812
59.8739
59.8992
59.9865
60.460
60.422
59.9710
59.9382
59.9482
59.9956
60.498
59.9929
59.8956
59.8934
59.9632
60.310
60.556
59.9880
59.9566
59.9754
60.192
60.540
59.9695
59.8511
59.8498
59.9208
59.9860
60.282
59.9816
59.9285
59.9189
59.9491
60.207
59.9923
59.8705
59.8430
59.9225
59.9866
59.9961
59.9141
59.8619
59.8775
59.9122
59.9588
59.9481
59.8434
59.8023
59.8532
59.9341
60.82
59.9678
59.9021
59.9028
59.9510
59.9996
59.9775
59.8618
59.8138
59.8742
59.9423
60.56
60.18
59.9498
59.9238
59.9511
60.325
60.598
59.9402
59.8689
59.9293
60.136
60.544
60.127
59.9425
59.9300
59.9580
60.114
60.482
59.9547
59.8751
59.9022
59.9754
60.480
60.415
59.9737
59.9547
59.9805
60.300
60.485
59.9363
59.8374
59.8587
59.9281
59.9942
60.113
59.9554
59.9136
59.9092
59.9574
60.262
59.9520
59.8359
59.8457
59.9264
59.9766
59.9738
59.8995
59.8712
59.8885
59.9253
59.9750
59.9372
59.8335
59.8160
59.8843
59.9703
60.199
59.9529
59.8980
59.9163
59.9697
60.151
59.9507
59.8329
59.8226
59.8938
59.9604
60.218
59.9991
59.9530
59.9473
59.9899
60.702
60.569
59.9348
59.9017
59.9780
60.501
60.718
60.87
59.9527
59.9557
59.9856
60.377
60.436
59.9408
59.8920
59.9448
60.214
60.851
60.419
59.9749
59.9713
60.125
60.620
60.472
59.9234
59.8630
59.9072
59.9712
60.294
60.203
59.9638
59.9375
59.9521
60.129
60.539
59.9390
59.8545
59.8962
59.9740
60.170
59.9744
59.9007
59.8846
59.9068
59.9557
59.9948
59.9174
59.8259
59.8350
59.9078
59.9940
60.131
59.9392
59.9084
59.9430
59.9979
60.243
59.9238
59.8377
59.8658
59.9363
59.9973
60.326
59.9916
59.9582
59.9682
60.256
60.996
60.301
59.9160
59.9211
60.71
60.693
60.759
60.0
59.9594
59.9711
60.127
60.751
60.342
59.9288
59.9054
59.9701
60.521
60.956
60.341
59.9856
59.9946
60.314
60.753
60.165
59.8846
59.8579
59.9262
59.9984
60.433
60.59
59.9544
59.9423
59.9736
60.450
60.361
59.9060
59.8565
59.9287
60.13
60.289
59.9556
59.8920
59.9003
59.9337
59.9807
59.9940
59.8955
59.8343
59.8738
59.9522
60.310
60.66
59.9395
59.9294
59.9680
60.204
60.123
59.8965
59.8435
59.8936
59.9591
60.272
60.369
59.9871
59.9639
59.9864
60.611
60.1089
59.9976
59.9069
59.9510
60.309
60.800
60.517
59.9770
59.9541
59.9775
60.301
60.766
60.13
59.9190
59.9324
60.29
60.787
60.957
60.238
59.9910
60.118
60.474
60.703
59.9699
59.8679
59.8864
59.9596
60.193
60.480
59.9949
59.9471
59.9441
59.9885
60.610
59.9958
59.8743
59.8632
59.9379
60.9
60.20
59.9232
59.8865
59.9075
59.9373
59.9889
59.9563
59.8581
59.8360
59.8905
59.9702
60.273
59.9690
59.9139
59.9245
59.9802
60.285
59.9801
59.8591
59.8324
59.8962
59.9659
60.276
60.94
59.9657
59.9501
59.9841
60.708
60.755
59.9522
59.8988
59.9720
60.495
60.833
60.212
59.9611
59.9600
59.9908
60.412
60.588
59.9593
59.8912
59.9255
60.46
60.813
60.550
59.9844
59.9734
60.115
60.636
60.592
59.9287
59.8546
59.8925
59.9610
60.232
60.224
59.9640
59.9327
59.9438
60.38
60.484
59.9448
59.8434
59.8797
59.9681
60.195
59.9901
59.9077
59.8909
59.9155
59.9517
59.9922
59.9220
59.8308
59.8389
59.9108
59.9962
60.227
59.9546
59.9225
59.9482
59.9944
60.266
59.9371
59.8467
59.8652
59.9382
59.9998
60.444
59.9961
59.9602
59.9692
60.309
60.1019
60.416
59.9218
59.9243
60.151
60.766
60.900
60.127
59.9675
59.9745
60.73
60.726
60.534
59.9536
59.9243
59.9689
60.472
60.1059
60.583
60.26
60.109
60.518
60.991
60.476
59.9139
59.8825
59.9476
60.151
60.626
60.333
59.9770
59.9571
59.9828
60.533
60.587
59.9401
59.8854
59.9464
60.216
60.524
59.9881
59.9219
59.9322
59.9585
60.38
60.203
59.9217
59.8519
59.8856
59.9642
60.466
60.321
59.9576
59.9473
59.9915
60.409
60.444
59.9301
59.8634
59.9119
59.9825
60.524
60.600
60.106
59.9890
60.104
60.809
60.1383
60.368
59.9469
59.9863
60.678
60.1199
60.959
60.247
60.0
60.229
60.698
60.1193
60.447
59.9512
59.9593
60.350
60.1107
60.1253
60.523
60.172
60.406
60.907
60.1252
60.293
59.9217
59.9326
60.4
60.602
60.956
60.394
59.9906
59.9882
60.366
60.1072
60.504
59.9240
59.9137
59.9988
60.678
60.726
59.9903
59.9522
59.9706
60.12
60.482
60.261
59.9185
59.8930
59.9523
60.359
60.965
60.306
59.9709
59.9819
60.430
60.920
60.469
59.9376
59.9164
59.9706
60.359
60.998
60.772
60.292
60.187
60.600
60.1453
60.1393
60.116
59.9648
60.432
60.1239
60.1569
60.961
60.338
60.339
60.644
60.1170
60.1270
60.247
59.9654
60.152
60.948
60.1562
60.1249
60.627
60.560
60.981
60.1431
60.1255
60.8
59.9364
59.9822
60.544
60.1175
60.1099
60.472
60.131
60.252
60.838
60.1276
60.175
59.9257
59.9654
60.500
60.929
60.530
59.9823
59.9699
59.9933
60.393
60.726
59.9941
59.9097
59.9227
59.9931
60.704
60.858
60.91
59.9801
60.204
60.692
60.950
60.35
59.9146
59.9371
60.17
60.602
60.953
60.570
60.199
60.240
60.821
60.1605
60.929
59.9732
59.9814
60.697
60.1303
60.1310
60.593
60.184
60.233
60.607
60.1147
60.792
59.9748
59.9533
60.164
60.964
60.1428
60.799
60.300
60.421
60.835
60.1285
60.664
59.9427
59.9134
59.9759
60.428
60.915
60.490
59.9951
59.9840
60.185
60.831
60.644
59.9390
59.9030
59.9763
60.465
60.694
59.9953
59.9410
59.9462
59.9782
60.320
60.338
59.9309
59.8745
59.9182
59.9930
60.721
60.429
59.9723
59.9672
60.154
60.685
60.585
59.9398
59.8905
59.9372
60.86
60.780
60.805
60.281
59.9973
60.262
60.1091
60.1467
60.354
59.9547
60.64
60.932
60.1395
60.1073
60.397
60.234
60.408
60.897
60.1357
60.511
59.9635
59.9792
60.555
60.1348
60.1356
60.621
60.380
60.677
60.1187
60.1396
60.274
59.9200
59.9378
60.154
60.804
60.996
60.485
60.159
60.154
60.642
60.1286
60.526
59.9330
59.9369
60.239
60.817
60.725
59.9874
59.9582
59.9790
60.166
60.607
60.80
59.9097
59.8968
59.9575
60.460
60.959
60.348
59.9848
59.9989
60.522
60.959
60.334
59.9229
59.9092
59.9732
60.423
60.1044
60.723
60.249
60.149
60.617
60.1449
60.1235
59.9949
59.9664
60.469
60.1206
60.1431
60.754
60.220
60.166
60.501
60.1101
60.1128
60.91
59.9629
60.103
60.852
60.1432
60.996
60.368
60.380
60.731
60.1203
60.949
59.9642
59.9114
59.9626
60.307
60.899
60.710
60.180
59.9896
60.27
60.641
60.953
59.9861
59.9038
59.9525
60.297
60.685
60.216
59.9498
59.9371
59.9635
60.52
60.378
59.9524
59.8706
59.8927
59.9723
60.562
60.538
59.9760
59.9519
59.9901
60.473
60.696
59.9629
59.8828
59.9166
59.9811
60.417
60.718
60.236
59.9951
60.44
60.716
60.1385
60.545
59.9516
59.9742
60.540
60.1086
60.1038
60.393
60.110
60.187
60.624
60.1172
60.699
59.9653
59.9592
60.219
60.970
60.1284
60.688
60.318
60.513
60.978
60.1392
60.648
59.9432
59.9288
59.9958
60.544
60.1015
60.588
60.84
59.9927
60.335
60.1076
60.870
59.9586
59.9240
59.9985
60.730
60.911
60.153
59.9604
59.9723
60.49
60.523
60.474
59.9450
59.8998
59.9518
60.337
60.1035
60.575
59.9899
59.9976
60.507
60.978
60.745
59.9564
59.9202
59.9822
60.513
60.1092
60.981
60.535
60.347
60.650
60.1474
60.1611
60.419
59.9825
60.488
60.1311
60.1735
60.1339
60.667
60.484
60.656
60.1173
60.1502
60.559
59.9846
60.174
60.922
60.1685
60.1527
60.843
60.686
60.1028
60.1506
60.1553
60.341
59.9491
59.9864
60.576
60.1141
60.1240
60.657
60.276
60.356
60.871
60.1433
60.514
59.9506
59.9707
60.545
60.1111
60.918
60.147
59.9887
60.67
60.429
60.871
60.304
59.9317
59.9248
59.9966
60.823
60.1153
60.450
60.21
60.315
60.856
60.1253
60.413
59.9358
59.9481
60.190
60.731
60.1170
60.810
60.368
60.410
60.920
60.1662
60.1201
60.36
60.1
60.886
60.1576
60.1734
60.937
60.450
60.483
60.812
60.1326
60.1086
60.29
59.9713
60.289
60.1096
60.1595
60.1066
60.536
60.628
60.1057
60.1580
60.1138
59.9805
59.9433
60.30
60.669
60.1175
60.871
60.341
60.138
60.331
60.1035
60.1091
59.9847
59.9279
59.9922
60.703
60.1028
60.358
59.9667
59.9667
60.4
60.496
60.637
59.9660
59.9004
59.9308
60.93
60.910
60.740
60.64
59.9865
60.319
60.838
60.890
59.9762
59.9160
59.9556
60.206
60.847
60.1020
60.505
60.233
60.484
60.1205
60.1767
60.744
59.9768
60.156
60.1042
60.1587
60.1361
60.629
60.400
60.553
60.973
60.1439
60.646
59.9787
59.9897
60.633
60.1350
60.1442
60.790
60.527
60.799
60.1263
60.1586
60.538
59.9478
59.9601
60.341
60.932
60.1152
60.638
60.221
60.170
60.568
60.1296
60.725
59.9577
59.9563
60.400
60.1048
60.1040
60.192
59.9791
59.9973
60.308
60.748
60.388
59.9351
59.9087
59.9729
60.595
60.1203
60.663
60.102
60.215
60.724
60.1201
60.670
59.9481
59.9354
60.52
60.676
60.1216
60.1005
60.503
60.456
60.845
60.1654
60.1617
60.305
59.9876
60.638
60.1342
60.1662
60.1055
60.429
60.411
60.710
60.1248
60.1369
60.373
59.9790
60.193
60.948
60.1648
60.1341
60.708
60.604
60.995
60.1500
60.1374
60.81
59.9374
59.9865
60.514
60.1163
60.1092
60.490
60.180
60.321
60.979
60.1348
60.225
59.9369
59.9803
60.627
60.1045
60.657
59.9908
59.9733
59.9970
60.376
60.772
59.9980
59.9120
59.9274
60.20
60.901
60.1047
60.289
59.9984
60.343
60.870
60.1092
60.57
59.9147
59.9443
60.176
60.822
60.1169
60.705
60.315
60.482
60.1132
60.1875
60.1130
60.11
60.148
60.979
60.1549
60.1500
60.755
60.409
60.540
60.915
60.1448
60.982
60.12
59.9888
60.523
60.1314
60.1699
60.1027
60.587
60.781
60.1189
60.1596
60.890
59.9570
59.9404
60.112
60.833
60.1239
60.800
60.317
60.174
60.472
60.1198
60.983
59.9734
59.9374
60.98
60.832
60.1049
60.297
59.9763
59.9848
60.196
60.669
60.608
59.9596
59.9088
59.9533
60.415
60.1117
60.743
60.94
60.44
60.580
60.1150
60.992
59.9758
59.9347
59.9860
60.494
60.1145
60.1125
60.605
60.406
60.692
60.1408
60.1680
60.545
59.9882
60.479
60.1273
60.1682
60.1270
60.606
60.519
60.708
60.1190
60.1504
60.579
59.9802
60.101
60.862
60.1586
60.1538
60.827
60.661
60.991
60.1466
60.1585
60.394
59.9429
59.9704
60.411
60.1034
60.1168
60.588
60.232
60.298
60.828
60.1409
60.501
59.9450
59.9678
60.539
60.1053
60.838
60.10
59.9762
59.9986
60.340
60.803
60.254
59.9266
59.9157
59.9800
60.627
60.1009
60.339
59.9877
60.135
60.690
60.1044
60.260
59.9212
59.9282
59.9968
60.639
60.1092
60.717
60.282
60.308
60.787
60.1539
60.1129
59.9902
59.9754
60.626
60.1341
60.1511
60.770
60.283
60.280
60.606
60.1224
60.1036
59.9946
59.9547
60.139
60.934
60.1449
60.945
60.377
60.438
60.847
60.1335
60.929
59.9624
59.9152
59.9724
60.365
60.910
60.642
60.75
59.9897
60.133
60.745
60.858
59.9645
59.9027
59.9611
60.333
60.671
60.49
59.9383
59.9363
59.9641
60.92
60.335
59.9360
59.8614
59.8919
59.9702
60.555
60.489
59.9780
59.9597
59.9944
60.450
60.582
59.9395
59.8661
59.9050
59.9781
60.430
60.627
60.92
59.9780
59.9993
60.706
60.1327
60.305
59.9262
59.9585
60.456
60.1016
60.869
60.113
59.9846
60.3
60.363
60.867
60.321
59.9346
59.9348
60.79
60.780
60.1032
60.394
60.41
60.222
60.637
60.1004
60.98
59.8894
59.8853
59.9553
60.195
60.652
60.191
59.9678
59.9595
59.9967
60.656
60.269
59.9031
59.8839
59.9599
60.274
60.370
59.9548
59.9092
59.9194
59.9550
60.20
59.9849
59.8766
59.8418
59.8955
59.9775
60.502
60.95
59.9460
59.9444
59.9857
60.373
60.138
59.8932
59.8559
59.9142
59.9785
60.408
60.318
59.9850
59.9647
59.9928
60.756
60.959
59.9766
59.9172
59.9761
60.523
60.912
60.426
59.9767
59.9612
59.9811
60.301
60.624
59.9728
59.9016
59.9389
60.150
60.847
60.630
59.9914
59.9766
60.63
60.501
60.621
59.9402
59.8533
59.8790
59.9498
60.115
60.226
59.9661
59.9337
59.9358
59.9836
60.395
59.9513
59.8435
59.8603
59.9396
59.9963
59.9744
59.8931
59.8684
59.8931
59.9345
59.9789
59.9119
59.8146
59.8071
59.8782
59.9595
59.9977
59.9305
59.8890
59.9116
59.9655
60.71
59.9311
59.8127
59.8101
59.8827
59.9513
60.57
59.9743
59.9240
59.9215
59.9742
60.586
60.343
59.9046
59.8806
59.9629
60.307
60.509
59.9809
59.9271
59.9222
59.9590
60.185
60.187
59.9142
59.8665
59.9142
59.9946
60.588
60.226
59.9589
59.9557
59.9977
60.438
60.226
59.8859
59.8253
59.8729
59.9387
60.4
59.9882
59.9366
59.9090
59.9252
59.9914
60.231
59.9100
59.8267
59.8800
59.9624
59.9957
59.9447
59.8675
59.8581
59.8899
59.9340
59.9685
59.8886
59.8065
59.8247
59.8959
59.9758
59.9889
59.9163
59.8843
59.9144
59.9691
59.9967
59.8875
59.8001
59.8291
59.8980
59.9606
59.9976
59.9568
59.9225
59.9291
59.9912
60.622
59.9894
59.8747
59.8887
59.9775
60.364
60.365
59.9569
59.9154
59.9241
59.9606
60.200
59.9835
59.8835
59.8663
59.9334
60.92
60.533
59.9926
59.9457
59.9632
60.85
60.428
59.9772
59.8462
59.8224
59.8905
59.9597
60.76
59.9696
59.9194
59.9036
59.9353
60.98
59.9988
59.8717
59.8276
59.9013
59.9761
59.9990
59.9245
59.8721
59.8715
59.9032
59.9520
59.9618
59.8659
59.8068
59.8485
59.9231
60.62
59.9851
59.9173
59.9084
59.9497
60.101
60.124
59.9080
59.8683
59.9249
60.20
60.822
60.959
60.631
60.523
60.825
60.1667
60.2203
60.1078
60.321
60.918
60.1885
60.2482
60.2237
60.1558
60.1550
60.1772
60.2334
60.2846
60.2070
60.1314
60.1613
60.2539
60.3483
60.3586
60.2910
60.2897
60.3418
60.4019
60.4336
60.3234
60.2361
60.2797
60.3701
60.4544
60.4881
60.4388
60.4240
60.4500
60.5305
60.6181
60.5351
60.4500
60.5128
60.6265
60.7079
60.6903
60.6219
60.6327
60.6931
60.7671
60.8363
60.7733
60.7141
60.7776
60.8904
61.103
61.304
60.9796
61.51
61.933
61.1952
61.2344
61.1343
61.1131
61.2079
61.3161
61.4250
61.4546
61.4464
61.4856
61.5653
61.6946
61.7408
61.6462
61.6621
61.8052
61.9318
61.9972
61.9535
61.9652
62.346
62.1188
62.2346
62.2356
62.1838
62.2522
62.3837
62.5184
62.5750
62.5471
62.5989
62.7050
62.8213
62.8765
62.7853
62.7839
62.9130
63.487
63.1738
63.1911
63.2120
63.2777
63.3874
63.5315
63.5165
63.4669
63.5760
63.7393
63.8701
63.8791
63.8661
63.9547
64.622
64.1995
64.2605
64.2161
64.2831
64.4318
64.6029
64.7002
64.6880
64.7657
64.8940
65.468
65.1086
65.475
65.1168
65.2725
65.4432
65.5749
65.6074
65.6828
65.7908
65.9659
66.620
66.108
66.994
66.2891
66.4583
66.5314
66.5405
66.6383
66.7583
66.9228
67.20
66.9943
67.1014
67.2742
67.4680
67.5271
67.5619
67.6903
67.8451
68.57
67.9763
67.9862
68.1447
68.3347
68.5107
68.5642
68.6427
68.7544
68.9309
69.511
69.252
69.1345
69.3397
69.5275
69.5828
69.6316
69.7659
69.9119
70.918
70.1173
70.1754
70.3390
70.5504
70.7096
70.7502
70.8723
71.434
71.2308
71.2470
71.2923
71.4652
71.6640
71.8570
71.9468
72.592
72.2002
72.4206
72.4778
72.5175
72.7262
72.9538
73.952
73.1496
73.2807
73.4341
73.6508
73.7111
73.7835
73.9660
74.1931
74.3467
74.4325
74.5884
74.7794
74.9447
74.9402
75.507
75.2610
75.5015
75.6284
75.7454
75.8778
76.924
76.2175
76.2568
76.4508
76.6936
76.8522
76.9235
77.762
77.2511
77.4639
77.5293
77.6436
77.8499
78.1012
78.2115
78.3491
78.5424
78.7637
78.8129
78.9147
79.1173
79.3735
79.5470
79.6868
79.8403
80.800
80.1904
80.2783
80.5105
80.7743
80.9067
81.389
81.1971
81.4271
81.5682
81.6767
81.8782
82.1387
82.2852
82.4433
82.6435
82.8771
82.9433
83.553
83.2696
83.5405
83.7107
83.8710
84.409
84.2699
84.3491
84.5247
84.7898
84.9955
85.1179
85.2975
85.5244
85.7089
85.8120
86.15
86.2804
86.4598
86.6274
86.8398
87.678
87.1419
87.3189
87.5616
87.8229
88.88
88.1770
88.4289
88.5676
88.7090
88.9790
89.2520
89.4015
89.5708
89.7857
90.10
90.1430
90.3559
90.6329
90.8094
91.167
91.2517
91.4407
91.5308
91.7451
92.396
92.2650
92.4503
92.6449
92.8605
92.9839
93.2309
93.5144
93.6809
93.8715
94.954
94.3146
94.4574
94.6726
94.9642
95.1572
95.3696
95.6223
95.7659
95.9279
96.1771
96.4734
96.7008
96.8903
97.1510
97.2824
97.5108
97.8201
98.378
98.2380
98.4486
98.6928
98.8704
99.1011
99.3862
99.5973
99.8330
100.1014
100.2271
100.4157
100.7081
100.9878
101.2064
101.4213
101.6224
101.8037
102.960
102.3510
102.5532
102.7646
103.280
103.2041
103.4266
103.7249
103.9476
104.1900
104.4502
104.5854
104.7994
105.1053
105.3840
105.6155
105.8842
106.449
106.2886
106.6154
106.8505
107.653
107.3343
107.5496
107.7745
108.737
108.3192
108.5782
108.8571
109.134
109.2251
109.5478
109.8396
110.641
110.3191
110.4874
110.7543
111.643
111.2952
111.5237
111.7953
111.9927
112.2416
112.5421
112.7990
113.659
113.2779
113.4650
113.7465
114.600
114.3217
114.5927
114.7822
115.450
115.3807
115.6428
115.8722
116.1499
116.3766
116.6517
116.9452
117.2239
117.5167
117.7074
117.9240
118.2482
118.5660
118.8123
119.638
119.2682
119.5819
119.8606
120.1063
120.3771
120.6076
120.8522
121.1646
121.4365
121.7151
121.9295
122.1450
122.4543
122.7756
123.374
123.2972
123.5121
123.8448
124.1474
124.4052
124.6872
124.9345
125.2239
125.5285
125.8278
126.1332
126.3233
126.5797
126.9347
127.2492
127.5244
127.7314
128.266
128.3478
128.6264
128.9007
129.1387
129.3951
129.7110
130.75
130.3011
130.4982
130.7460
131.860
131.3990
131.6875
131.8977
132.2064
132.5365
132.8158
133.1058
133.3655
133.6687
133.9845
134.3028
134.5923
134.8087
135.1228
135.4878
135.7835
136.432
136.3139
136.6573
136.9582
137.2400
137.4971
137.7632
138.957
138.4032
138.6895
138.8963
139.1847
139.5393
139.8378
140.984
140.3613
140.7084
141.215
141.3093
141.5805
141.8796
142.2075
142.5347
142.8279
143.561
143.3900
143.7619
144.679
144.3126
144.6367
144.9716
145.2701
145.5631
145.8270
146.1528
146.4794
146.7872
147.117
147.2906
147.6548
147.9676
148.2271
148.5082
148.8584
149.1732
149.4686
149.7451
150.674
150.4132
150.7417
150.9823
151.2645
151.6548
151.9698
152.2346
152.5389
152.8864
153.1897
153.5045
153.9556
154.4268
154.3071
154.7803
154.5748
155.2207
155.1127
155.7345
155.4357
155.9958
155.8801
156.4100
156.2498
156.5971
156.6130
156.8878
156.9302
156.9569
157.2162
157.2461
157.5030
157.2617
157.6629
157.4736
157.9129
157.5198
157.9853
157.6649
158.1291
157.6678
158.795
157.8388
158.2282
157.9340
158.1512
158.1023
158.2301
158.2446
158.2069
158.3608
158.2118
158.4504
158.1530
158.5204
158.2105
158.6045
158.1637
158.6114
158.2160
158.6612
158.2419
158.6347
158.3020
158.5932
158.3229
158.4555
158.4351
158.5070
158.5005
158.3192
158.5435
158.3847
158.6455
158.2538
158.6318
158.2712
158.6906
158.1890
158.6288
158.2550
158.6776
158.2339
158.5912
158.3322
158.5777
158.4067
158.5028
158.4929
158.4338
158.4973
158.2408
158.5222
158.2941
158.6010
158.1050
158.5258
158.1369
158.5842
158.1038
158.5414
158.1277
158.5097
158.1299
158.3952
158.2718
158.4314
158.3212
158.2603
158.3908
158.3047
158.4859
158.1369
158.4742
158.1202
158.4913
157.9772
158.4213
157.9931
158.4378
157.9155
158.3067
158.150
158.3484
158.822
158.2008
158.1632
158.1940
158.2270
158.385
158.2864
158.425
158.3463
157.9052
158.3353
157.9339
158.3948
157.8529
158.3048
157.8906
158.3054
157.8458
158.1372
157.9653
158.1321
158.39
157.9415
158.801
157.9840
158.1705
157.8171
158.1717
157.7940
158.2138
157.6915
158.1757
157.7543
158.2172
157.6829
158.921
157.8030
158.1451
157.8780
157.9938
157.9523
157.9167
157.9754
157.7215
158.137
157.7666
158.820
157.5531
158.127
157.5704
158.509
157.5231
157.9881
157.5785
157.9922
157.5855
157.8167
157.7353
157.8432
157.7919
157.6631
157.8681
157.6862
157.9534
157.5103
157.9302
157.4847
157.9331
157.3328
157.8205
157.4230
157.8902
157.3666
157.6827
157.4928
157.6785
157.5755
157.5374
157.6551
157.5261
157.7191
157.3328
157.7391
157.3595
157.7962
157.2063
157.7223
157.2734
157.7698
157.2698
157.6764
157.3430
157.5938
157.3679
157.3927
157.4793
157.3817
157.5291
157.1594
157.5481
157.2039
157.6280
157.902
157.5877
157.790
157.5836
157.176
157.4559
157.1804
157.4902
157.2255
157.2949
157.3443
157.3291
157.4438
157.1541
157.4707
157.761
157.4754
156.8980
157.4116
156.9300
157.4423
156.8368
157.2841
156.9745
157.3069
157.538
157.1677
157.1619
157.1293
157.2267
156.9196
157.2918
156.9466
157.3490
156.7582
157.2991
156.8072
157.3391
156.7709
157.2271
156.8566
157.1644
156.8588
156.9157
156.9768
156.9396
157.295
156.6440
157.394
156.6953
157.1236
156.5468
157.684
156.5384
157.599
156.4766
156.9259
156.6442
156.9389
156.6902
156.7318
156.8160
156.7168
156.9097
156.5479
156.9394
156.4929
156.9389
156.2970
156.8461
156.3850
156.8946
156.3062
156.6955
156.4726
156.7146
156.5657
156.5445
156.6642
156.4999
156.7305
156.2845
156.7583
156.3760
156.8435
156.1799
156.7298
156.2799
156.7937
156.2897
156.6448
156.4036
156.5655
156.4451
156.3235
156.5422
156.3445
156.6160
156.808
156.5760
156.1330
156.6547
156.437
156.5642
156.982
156.5491
156.1269
156.3590
156.3125
156.4100
156.3865
156.1519
156.4589
156.1703
156.5581
156.215
156.5278
155.9974
156.5079
155.8674
156.3382
156.119
156.3709
156.586
156.1193
156.1974
156.1338
156.3009
155.9480
156.3393
155.9140
156.3880
155.7573
156.3299
155.8791
156.3866
155.8198
156.2100
156.32
156.2216
156.1050
156.347
156.1992
155.9667
156.2333
155.7588
156.2421
155.7799
156.2874
155.6304
156.1651
155.7270
156.1790
155.7849
156.219
155.9290
155.9769
156.155
155.7399
156.996
155.7904
156.1857
155.5767
156.1378
155.6441
156.1915
155.6100
156.656
155.7209
156.69
155.7698
155.8029
155.9073
155.7878
155.9823
155.5277
155.9929
155.5506
156.587
155.4416
155.9880
155.4929
155.9759
155.5231
155.8086
155.7291
155.8309
155.8105
155.6256
155.9057
155.6186
156.10
155.4676
155.9814
155.4297
155.9537
155.3198
155.7879
155.4823
155.8085
155.5394
155.5706
155.6820
155.5688
155.7803
155.4029
155.8220
155.3597
155.8620
155.1941
155.7573
155.3426
155.8256
155.3356
155.6201
155.5188
155.6250
155.6361
155.4496
155.7150
155.3764
155.7412
155.1214
155.6731
155.1912
155.7322
155.980
155.5574
155.2657
155.5713
155.3715
155.3886
155.4929
155.3115
155.5699
155.935
155.5998
155.1605
155.6701
155.279
155.5828
155.1296
155.5960
155.1994
155.4000
155.3433
155.3292
155.3956
155.972
155.4680
155.1112
155.5382
154.8649
155.4369
154.9495
155.4792
154.9639
155.3506
155.1254
155.3199
155.2126
155.668
155.3468
155.1201
155.4413
154.8766
155.4168
154.9308
155.4861
154.8859
155.3830
154.9655
155.2855
155.237
155.678
155.1804
155.698
155.2617
154.7859
155.2694
154.8189
155.3426
154.7212
155.2727
154.7970
155.2651
154.8426
155.493
155.519
155.805
155.1396
154.8385
155.2196
154.8638
155.3118
154.6840
155.2380
154.7034
155.2102
154.6715
155.468
154.8611
155.231
154.9371
154.7346
155.377
154.7549
155.1410
154.5990
155.1255
154.5673
155.1187
154.5281
155.46
154.7332
155.376
154.8090
154.7601
154.9482
154.7622
155.611
154.6027
155.839
154.5434
155.615
154.4003
154.9230
154.5560
154.9576
154.6029
154.6544
154.7668
154.6712
154.8837
154.5137
154.9342
154.4257
154.9541
154.3137
154.8848
154.4654
154.9250
154.4904
154.6813
154.6785
154.6920
154.8052
154.5110
154.8677
154.4020
154.8762
154.2456
154.8105
154.3345
154.8364
154.3027
154.5860
154.5098
154.6147
154.6338
154.3770
154.7114
154.3345
154.7881
154.1904
154.7604
154.2622
154.7835
154.2250
154.6278
154.4370
154.6326
154.5596
154.3718
154.6471
154.3385
154.7070
154.785
154.6382
154.1476
154.6946
154.789
154.5080
154.2714
154.4860
154.3926
154.3321
154.5185
154.2149
154.5880
154.517
154.6037
154.1288
154.6601
154.2
154.4858
154.2018
154.5309
154.3266
154.2671
154.4425
154.2190
154.5083
153.9515
154.4898
154.29
154.5498
153.8790
154.3782
154.549
154.3809
154.1813
154.2242
154.3213
154.1050
154.4109
153.9519
154.4589
153.9645
154.4965
153.8469
154.3909
154.115
154.3948
154.1265
154.1679
154.2633
154.1260
154.3313
153.8203
154.3345
153.8957
154.4163
153.6944
154.2279
153.8785
154.2849
153.9814
154.341
154.1257
154.210
154.2419
153.7425
154.2674
153.8332
154.3614
153.6696
154.2140
153.8220
154.2427
153.9429
154.299
154.793
153.9393
154.1512
153.6737
154.1708
153.7083
154.2409
153.5358
154.767
153.6950
154.1076
153.8134
153.8881
153.9652
153.8531
154.794
153.5933
154.1122
153.6724
154.1991
153.5080
154.607
153.6719
154.948
153.7938
153.8680
153.9375
153.8058
154.111
153.5097
154.231
153.5797
154.1090
153.3855
153.9255
153.5729
153.9732
153.6799
153.7262
153.8364
153.7085
153.9480
153.4407
153.9743
153.5305
154.607
153.3710
153.9121
153.5455
153.9219
153.6736
153.7108
153.8127
153.6033
153.8705
153.3827
153.8969
153.3728
153.9215
153.2681
153.7849
153.4414
153.7540
153.5733
153.5731
153.7197
153.4925
153.8181
153.2630
153.8263
153.3609
153.9065
153.2361
153.7281
153.4386
153.7674
153.5780
153.4952
153.6995
153.4519
153.7688
153.1956
153.7417
153.2110
153.7669
153.1529
153.6143
153.3540
153.5539
153.4845
153.3690
153.6132
153.2944
153.6983
153.801
153.6723
153.2089
153.7487
153.1256
153.5312
153.3621
153.5505
153.5038
153.3047
153.6010
153.2029
153.6377
153.29
153.5861
153.767
153.6043
153.618
153.3695
153.2853
153.3938
153.4253
153.1230
153.5032
153.927
153.5837
152.9336
153.5193
153.439
153.5291
153.850
153.3337
153.3009
153.2940
153.4349
153.634
153.4956
153.366
153.5325
152.8332
153.3990
152.9705
153.4045
153.341
153.1642
153.2280
153.1079
153.3564
152.9122
153.4004
152.9091
153.4579
152.7718
153.3125
152.9774
153.3348
153.767
153.1092
153.2522
153.361
153.3727
152.8535
153.3865
152.8466
153.3871
152.7251
153.1950
152.9426
153.1814
153.409
152.9083
153.1809
152.8819
153.2908
152.6962
153.2689
152.7289
153.2856
152.7214
153.1197
152.9723
153.830
153.843
152.8345
153.2024
152.8379
153.3130
152.6550
153.2336
152.7078
153.2002
152.7378
152.9833
152.9521
152.9361
153.570
152.6418
153.1221
152.6782
153.2074
152.5681
153.1321
152.6483
153.677
152.7742
152.8590
152.9881
152.8880
153.1080
152.5967
153.1379
152.6254
153.1980
152.5780
153.863
152.7025
152.9985
152.8053
152.7281
152.9681
152.6921
153.560
152.4431
153.324
152.5223
153.805
152.5072
152.9031
152.7043
152.8477
152.8397
152.6076
152.9779
152.6118
153.681
152.4004
153.51
152.5123
153.260
152.5807
152.8521
152.7644
152.7247
152.8544
152.4496
152.9269
152.4607
152.9871
152.2853
152.8578
152.4559
152.8703
152.5860
152.6379
152.7556
152.5533
152.8663
152.3428
152.9035
152.4158
152.9692
152.3026
152.7979
152.5345
152.7761
152.6791
152.5514
152.8085
152.4809
152.8726
152.2273
152.8110
152.2931
152.8258
152.2850
152.5960
152.5245
152.5817
152.6627
152.3633
152.7556
152.2782
152.8094
152.1289
152.7194
152.3032
152.7431
152.3833
152.4872
152.5904
152.4934
152.7304
152.2272
152.7445
152.1814
152.7402
152.820
152.5711
152.2925
152.5590
152.4074
152.2654
152.5547
152.2624
152.6695
152.530
152.6353
152.780
152.6304
152.1166
152.4306
152.3760
152.4490
152.5007
152.1644
152.5927
152.1534
152.6839
152.113
152.5833
152.1068
152.5219
152.1967
152.2589
152.3976
152.2431
152.5077
151.9503
152.5148
152.229
152.5815
151.9475
152.4310
152.1492
152.3656
152.2913
152.1056
152.4507
152.1281
152.5623
151.9016
152.5087
152.85
152.5509
152.624
152.3455
152.2604
152.2252
152.3609
151.9567
152.4309
151.9432
152.4895
151.7838
152.3459
151.9732
152.3458
152.1172
152.1259
152.2808
152.604
152.4017
151.8227
152.4051
151.8879
152.4465
151.8452
152.2677
152.954
152.2255
152.2479
151.9845
152.3558
151.9281
152.4083
151.7054
152.2910
151.8443
152.3325
151.9103
152.601
152.1269
152.94
152.2638
151.7887
152.3128
151.7617
152.3429
151.6942
152.1960
151.9513
152.2080
152.749
151.9282
152.2371
151.9370
152.3632
151.7439
152.3220
151.7584
152.2850
151.7781
152.637
152.159
152.58
152.1411
151.7231
152.2102
151.7098
152.2742
151.6280
152.1815
151.7759
152.1269
151.9181
151.8805
152.1271
151.9148
152.2455
151.6318
152.2317
151.7192
152.2849
151.7152
152.1079
151.9173
151.9880
152.269
151.7216
152.1345
151.6832
152.2037
151.5036
152.971
151.6546
152.740
151.7954
151.8694
151.9839
151.7792
152.1064
151.5478
152.1323
151.6316
152.1962
151.5608
152.113
151.8066
152.134
151.9708
151.7557
152.897
151.6781
152.1442
151.4505
152.451
151.5776
152.680
151.6445
151.8028
151.8709
151.7503
152.78
151.5308
152.579
151.4992
152.867
151.4384
151.9319
151.6975
151.9223
151.8264
151.6518
151.9808
151.6082
152.918
151.4463
152.399
151.4893
151.9854
151.5495
151.7350
151.7777
151.6972
151.8945
151.3943
151.9386
151.4222
151.9902
151.3524
151.8638
151.5439
151.8063
151.6908
151.5305
151.8662
151.5701
151.9854
151.3048
151.9198
151.4208
151.9616
151.4972
151.7507
151.7036
151.6464
151.8035
151.3252
151.8505
151.3827
151.9337
151.2075
151.7294
151.4472
151.7447
151.6021
151.4821
151.7535
151.4293
151.8662
151.1960
151.8096
151.3491
151.8845
151.3666
151.6161
151.6143
151.6124
151.7809
151.3526
151.8338
151.3066
151.8575
151.1577
151.6724
151.3735
151.6859
151.5032
151.3412
151.6620
151.3522
151.7898
151.1498
151.7465
151.2154
151.7508
151.2829
151.5024
151.5424
151.5279
151.6849
151.2019
151.7359
151.2483
151.8229
151.1574
151.6730
151.3387
151.5921
151.4502
151.2796
151.6167
151.2777
151.7178
151.125
151.6310
151.1324
151.6453
151.2469
151.4462
151.4579
151.3540
151.5924
151.1013
151.6584
151.1587
151.7281
151.590
151.5699
151.2971
151.5320
151.4736
151.2938
151.6043
151.1908
151.6645
150.9958
151.5951
151.972
151.5886
151.1717
151.3489
151.4119
151.2928
151.5535
151.742
151.6053
151.565
151.6404
150.9914
151.4618
151.2652
151.4790
151.4062
151.1764
151.5526
151.1689
151.6655
150.9887
151.5784
151.755
151.5354
151.1556
151.2322
151.3824
151.2162
151.5074
150.9127
151.5044
150.9749
151.5532
150.9762
151.3936
151.2034
151.3164
151.3601
151.610
151.5015
151.645
151.5874
150.9022
151.5015
151.467
151.4824
151.2182
151.2689
151.3945
151.1492
151.4856
150.8715
151.4652
150.9537
151.5181
150.9129
151.2489
151.1844
151.2306
151.3470
150.9755
151.4392
150.9314
151.5025
150.8109
151.3789
151.444
151.3860
151.1750
151.1148
151.3709
151.670
151.4966
150.8820
151.4754
150.9025
151.4357
150.9309
151.1984
151.1883
151.1713
151.3157
150.8180
151.3697
150.8656
151.4397
150.7864
151.3013
150.9978
151.2414
151.1560
150.9736
151.3350
150.9765
151.4444
150.7654
151.3860
150.8796
151.3862
151.120
151.1852
151.2140
151.660
151.3097
150.7507
151.3264
150.8235
151.4003
150.7223
151.1520
150.9943
151.1314
151.1673
150.8887
151.2883
150.8230
151.3613
150.6766
151.2782
150.8647
151.2880
150.9910
151.352
151.2008
150.9857
151.3452
150.7627
151.3412
150.7554
151.3059
150.7526
151.711
151.222
151.407
151.1563
150.7316
151.2335
150.7361
151.3060
150.6665
151.2189
150.8256
151.1427
150.9851
150.8609
151.1905
150.8869
151.3124
150.6144
151.2422
150.7411
151.2714
150.8650
151.544
151.710
150.9334
151.1699
150.6771
151.2210
150.6967
151.2660
150.5864
151.453
150.8527
151.270
151.314
150.7644
151.1563
150.6964
151.2348
150.5432
151.1492
150.7350
151.1632
150.8596
150.9163
151.734
150.8609
151.2236
150.6421
151.2173
150.6225
151.1720
150.6290
150.9443
150.8997
150.9069
151.288
150.6023
151.1086
150.6159
151.1871
150.5279
151.654
150.7079
150.9960
150.8704
150.6999
151.613
150.7178
151.1754
150.4867
151.1122
150.6064
151.1181
150.7449
150.9196
150.9454
150.7848
151.443
150.4698
151.594
150.5379
151.1147
150.4682
150.8852
150.7478
150.8542
150.9160
150.6237
151.382
150.5511
151.1059
150.3944
150.9746
150.6324
151.0
150.7645
150.7054
150.9715
150.6742
151.1067
150.4972
151.890
150.5140
151.458
150.5523
150.7646
150.8200
150.7527
150.9575
150.4328
150.9912
150.4685
151.594
150.4428
150.9336
150.6491
150.8410
150.8211
150.5489
150.9788
150.5777
151.853
150.3690
150.9855
150.5412
150.9776
150.7089
150.7631
150.8998
150.6422
150.9886
150.3342
150.9500
150.4357
150.9927
150.4436
150.7494
150.7121
150.7052
150.8786
150.4731
150.9652
150.4062
150.9925
150.3229
150.8485
150.6112
150.8460
150.7546
150.5692
150.9187
150.5313
151.373
150.3778
150.9712
150.4398
150.8854
150.5490
150.6114
150.7801
150.5684
150.9020
150.3027
150.9017
150.3461
150.9126
150.3875
150.7314
150.6327
150.6426
150.7868
150.3840
150.8983
150.4181
150.9780
150.2826
150.8334
150.5094
150.7938
150.6965
150.5289
150.8503
150.4349
150.9096
150.2386
150.8428
150.3526
150.8378
150.4505
150.5226
150.6846
150.4873
150.8381
150.2864
150.8617
150.2910
150.8733
150.2929
150.6509
150.5994
150.6493
150.7457
150.3403
150.8441
150.3451
150.9272
150.2709
150.8196
150.4317
150.7012
150.5676
150.3870
150.7400
150.3637
150.8471
150.1488
150.7653
150.2699
150.7530
150.4193
150.5180
150.6354
150.4296
150.7690
150.1983
150.8070
150.2898
150.8555
150.2597
150.6295
150.5390
150.5765
150.7221
150.3320
150.8080
150.2632
150.8278
150.1310
150.6605
150.3680
150.6434
150.5130
150.3110
150.6762
150.2957
150.7940
150.1495
150.7503
150.2235
150.6962
150.3654
150.4365
150.6190
150.4291
150.7585
150.1861
150.7795
150.2158
150.7920
150.2529
150.5959
150.5000
150.4814
150.6134
150.2041
150.7069
150.2052
150.7756
150.449
150.5656
150.3114
150.5424
150.4949
150.3235
150.6530
150.2361
150.7460
150.263
150.6450
150.2348
150.6846
150.3613
150.4241
150.5857
150.3652
150.7371
150.1420
150.7372
150.1390
150.6858
150.1629
150.4707
150.4393
150.4304
150.5800
150.615
150.6228
150.1036
150.6968
150.650
150.5653
150.2839
150.4911
150.4541
150.1725
150.6146
150.2033
150.7225
150.172
150.6274
150.1868
150.6193
150.3615
150.3506
150.5536
150.2359
150.6351
150.3
150.6072
150.864
150.6320
150.1231
150.3176
150.3875
150.2952
150.5542
150.770
150.6172
150.551
150.6472
149.9929
150.4323
150.3089
150.4456
150.4682
150.1569
150.5965
150.1283
150.6900
149.9992
150.5659
150.1565
150.4799
150.2945
150.2134
150.4968
150.1564
150.5990
149.8858
150.5163
150.250
150.5346
150.1708
150.3337
150.3880
150.1926
150.5272
149.9585
150.5666
150.457
150.6220
150.239
150.4137
150.3049
150.3485
150.4859
150.911
150.5766
150.428
150.6060
149.8893
150.4101
150.1516
150.4048
150.2973
150.916
150.4557
150.677
150.5729
149.8829
150.4925
150.127
150.4554
150.1675
150.2250
150.4190
150.2013
150.5520
149.8950
150.5281
149.9931
150.5619
150.795
150.3826
150.3125
150.2171
150.4287
149.9259
150.4859
149.9627
150.5501
149.8665
150.3303
150.1475
150.2823
150.3332
150.511
150.4652
149.9937
150.5472
149.8194
150.4105
150.748
150.4379
150.2274
150.1580
150.4283
150.1103
150.5581
149.8837
150.5048
149.9586
150.4537
150.431
150.1957
150.2950
150.1275
150.4290
149.8266
150.4295
149.8915
150.4744
149.9164
150.2827
150.1665
150.1724
150.3291
149.9272
150.4445
149.9644
150.5270
149.8043
150.3323
150.782
150.3169
150.2626
150.759
150.4132
149.9436
150.4551
149.7439
150.3493
149.9218
150.3508
150.528
150.123
150.2734
149.9827
150.4047
149.8024
150.4096
149.8353
150.3816
149.9350
150.1351
150.2192
150.1239
150.3673
149.8491
150.4254
149.8590
150.4539
149.8628
150.2914
150.1087
150.1889
150.2388
149.8358
150.3413
149.8583
150.4309
149.7172
150.2778
149.9480
150.2189
150.1351
149.9703
150.3061
149.9098
150.4098
149.6952
150.3245
149.8988
150.3507
150.217
150.815
150.2547
150.349
150.4082
149.7718
150.3825
149.8133
150.3652
149.8517
150.1059
150.1206
150.436
150.2656
149.7462
150.3131
149.7752
150.3659
149.7443
150.1856
149.9977
150.1121
150.1675
149.8304
150.3075
149.8474
150.3988
149.6776
150.2562
149.9058
150.2517
150.1023
149.9492
150.2579
149.8463
150.3312
149.6436
150.2564
149.7726
150.2333
149.8905
149.9455
150.1233
149.8970
150.2699
149.6468
150.2595
149.6953
150.2638
149.7681
150.452
150.641
150.16
150.2143
149.7083
150.2769
149.7463
150.3439
149.7031
150.1389
149.9453
150.382
150.800
149.7262
150.1972
149.7000
150.2651
149.5568
150.1271
149.7792
150.720
149.9678
149.8029
150.1348
149.7331
150.2414
149.5255
150.1533
149.7267
150.1732
149.8559
149.9195
150.933
149.8352
150.2376
149.6098
150.2205
149.6499
150.1955
149.6947
149.8974
149.9665
149.8639
150.1101
149.5500
150.1383
149.5803
150.1724
149.6022
150.256
149.8528
149.9160
150.229
149.6111
150.1422
149.6704
150.2390
149.5216
150.653
149.7816
150.284
149.9844
149.8000
150.1304
149.6535
150.1763
149.4700
150.721
149.6507
150.744
149.7899
149.7223
150.0
149.7046
150.1450
149.4972
150.1177
149.5590
150.834
149.6896
149.8757
149.9730
149.8296
150.1177
149.5294
150.1445
149.6090
150.2028
149.6371
149.9804
149.8865
149.8648
150.204
149.5758
150.1048
149.5650
150.1549
149.4745
149.9854
149.7456
149.9174
149.9361
149.6581
150.784
149.6162
150.1716
149.4364
150.268
149.6980
150.526
149.8573
149.7749
150.529
149.6754
150.1787
149.5286
150.1380
149.5967
150.761
149.6983
149.7587
149.9478
149.7434
150.864
149.4136
150.454
149.5111
150.783
149.6086
149.9050
149.8517
149.7483
150.89
149.5215
150.947
149.5781
150.1569
149.4941
149.9324
149.7889
149.9048
149.9788
149.6119
150.825
149.5400
150.1108
149.4102
149.9520
149.6574
149.9084
149.8137
149.6103
149.9805
149.5484
150.824
149.4025
150.121
149.5453
149.9820
149.7171
149.6624
149.9565
149.6770
150.952
149.4162
150.498
149.5223
150.593
149.6782
149.8560
149.8973
149.7033
150.68
149.4188
150.259
149.5045
150.774
149.4621
149.7799
149.7601
149.7748
149.9514
149.4856
150.190
149.4568
150.630
149.4135
149.9077
149.7132
149.8680
149.8803
149.5782
150.257
149.5663
150.1267
149.4163
149.9894
149.5994
149.9208
149.7485
149.5787
149.9391
149.5616
150.511
149.3275
149.9532
149.4798
149.9286
149.6702
149.7408
149.8831
149.5801
150.64
149.3763
150.158
149.5110
150.569
149.5598
149.7637
149.8351
149.7349
150.153
149.4846
150.490
149.4444
150.256
149.4331
149.8263
149.7228
149.7398
149.8716
149.4517
149.9693
149.4337
150.237
149.3777
149.8916
149.6103
149.8215
149.7917
149.4940
149.9570
149.5315
150.699
149.3447
149.9446
149.5512
149.9131
149.7573
149.6887
149.9318
149.5130
149.9953
149.3259
149.9460
149.4540
149.9381
149.5627
149.6131
149.8093
149.6028
149.9661
149.3262
149.9447
149.3903
149.9593
149.4710
149.6996
149.7754
149.6885
149.9232
149.4024
149.9828
149.4062
150.83
149.4340
149.8527
149.6735
149.7020
149.8136
149.4028
149.9153
149.4216
149.9918
149.2482
149.7683
149.5408
149.7712
149.7354
149.4579
149.8706
149.4026
149.9645
149.2437
149.8483
149.5000
149.8528
149.6519
149.5759
149.8581
149.4751
149.9812
149.3360
149.9473
149.3993
149.8678
149.5191
149.5766
149.7649
149.5528
149.8969
149.2047
149.8463
149.3415
149.9023
149.4290
149.6428
149.6773
149.5608
149.8404
149.2765
149.8838
149.3619
149.9455
149.3406
149.7585
149.6261
149.6547
149.8155
149.4227
149.9138
149.3339
149.9164
149.2347
149.7453
149.5181
149.7237
149.6707
149.3405
149.8100
149.3784
149.9294
149.2116
149.7934
149.4141
149.7590
149.6048
149.4548
149.8217
149.4569
149.9405
149.2537
149.8841
149.3839
149.8497
149.5788
149.6419
149.7872
149.4778
149.8797
149.2454
149.8679
149.3440
149.8861
149.3940
149.5755
149.6696
149.5632
149.8468
149.2744
149.8703
149.3078
149.9029
149.3189
149.6713
149.6477
149.6696
149.8059
149.3645
149.9009
149.3481
149.9585
149.3311
149.8305
149.5451
149.6798
149.6967
149.3963
149.8412
149.3684
149.9220
149.1734
149.7515
149.4218
149.7458
149.6183
149.4436
149.7890
149.3945
149.9047
149.1714
149.8038
149.3945
149.8345
149.5346
149.5350
149.7639
149.4656
149.9126
149.3050
149.9073
149.3027
149.8108
149.4079
149.5964
149.6740
149.4944
149.8091
149.2154
149.8230
149.2631
149.8456
149.3272
149.6472
149.5830
149.5641
149.7541
149.2401
149.8323
149.3366
149.9217
149.2383
149.6903
149.5349
149.6636
149.7380
149.4021
149.8447
149.2850
149.8574
149.1690
149.7167
149.4199
149.6564
149.5760
149.3632
149.7485
149.2835
149.8343
149.1827
149.7866
149.3122
149.6869
149.4948
149.4397
149.7381
149.4354
149.8626
149.1476
149.7921
149.3034
149.8245
149.4612
149.5368
149.6773
149.4377
149.7865
149.1289
149.7591
149.2355
149.7983
149.2781
149.4933
149.5614
149.4574
149.7367
149.2219
149.7864
149.1890
149.7920
149.2155
149.6191
149.5318
149.5603
149.6931
149.2883
149.8067
149.2544
149.8586
149.2124
149.7187
149.4404
149.6070
149.5841
149.2676
149.7259
149.2863
149.8271
149.601
149.6374
149.3117
149.6505
149.5126
149.3343
149.6829
149.2902
149.7972
149.556
149.6899
149.2916
149.7337
149.4331
149.4049
149.6618
149.3624
149.8099
149.1736
149.7899
149.1998
149.7025
149.3103
149.4461
149.5758
149.3712
149.7095
149.971
149.7160
149.1385
149.7090
149.2420
149.5603
149.5005
149.3995
149.6584
149.1708
149.7519
149.2241
149.8060
149.1584
149.5947
149.4660
149.5611
149.6605
149.2536
149.7567
149.2347
149.8019
149.681
149.5818
149.3670
149.5945
149.5289
149.2023
149.6631
149.2256
149.7817
149.756
149.6593
149.2711
149.6130
149.4561
149.3017
149.6718
149.3119
149.7997
149.855
149.7146
149.2400
149.6966
149.4338
149.4869
149.6421
149.2977
149.7232
149.842
149.7058
149.1676
149.6902
149.2610
149.4354
149.5255
149.3311
149.6879
149.1461
149.7346
149.1298
149.7176
149.1929
149.5159
149.5094
149.5006
149.6730
149.1478
149.7333
149.2145
149.8225
149.1797
149.6105
149.4358
149.5232
149.5772
149.1645
149.6887
149.2059
149.7775
149.358
149.5603
149.3172
149.5512
149.5253
149.2663
149.6704
149.1949
149.7595
149.387
149.6452
149.2997
149.6495
149.4561
149.3541
149.6591
149.2664
149.7825
149.1434
149.7525
149.1884
149.6253
149.3353
149.3894
149.5822
149.2877
149.6969
149.459
149.6765
149.1182
149.6458
149.2751
149.4738
149.5127
149.3296
149.6560
149.804
149.6998
149.1845
149.7594
149.1705
149.4907
149.4703
149.4758
149.6641
149.1541
149.7130
149.1608
149.7396
149.583
149.4846
149.3744
149.4910
149.5322
149.888
149.6222
149.1430
149.7283
149.380
149.5627
149.2802
149.5074
149.4663
149.1773
149.6410
149.2180
149.7570
149.193
149.6198
149.2371
149.5931
149.4499
149.3575
149.6289
149.1869
149.6841
148.9833
149.6079
149.1491
149.5951
149.2871
149.2855
149.5177
149.2163
149.6590
149.499
149.6631
149.674
149.5929
149.2160
149.3917
149.5009
149.3208
149.6502
149.751
149.6823
149.901
149.6775
149.1922
149.5088
149.4401
149.3400
149.5628
149.615
149.6328
149.782
149.6679
149.282
149.4488
149.3180
149.3587
149.5161
149.1367
149.6318
149.755
149.6720
148.9880
149.5100
149.3036
149.5262
149.4733
149.1551
149.6201
149.1818
149.7472
149.275
149.6045
149.2231
149.5414
149.3721
149.1744
149.5593
149.1970
149.6902
148.9204
149.5439
149.1267
149.5705
149.3186
149.2750
149.5214
149.2103
149.6571
148.9496
149.6022
149.1376
149.6485
149.2406
149.3395
149.5050
149.3008
149.6721
149.664
149.6733
149.714
149.6247
149.1322
149.3668
149.4172
149.3081
149.5615
148.9760
149.5861
149.345
149.6340
149.775
149.4634
149.3397
149.3326
149.5108
149.517
149.6201
149.1065
149.6905
149.249
149.5282
149.3031
149.4308
149.5053
149.2157
149.6405
149.708
149.6429
148.9650
149.5302
149.2044
149.4440
149.3694
149.1638
149.5405
149.679
149.6260
148.9872
149.5911
149.1093
149.4670
149.3047
149.2491
149.5444
149.1845
149.6531
148.9704
149.6108
149.980
149.5788
149.2821
149.3436
149.4971
149.2079
149.6020
148.9515
149.5739
149.444
149.5863
149.1214
149.2984
149.3876
149.2205
149.5599
149.31
149.5981
148.9978
149.5854
149.555
149.3816
149.3776
149.3643
149.5414
149.192
149.6025
149.740
149.6809
149.426
149.4665
149.3031
149.3854
149.4496
149.176
149.5477
149.691
149.6450
148.8961
149.4120
149.1922
149.4048
149.3962
149.1011
149.5344
149.726
149.6302
148.8883
149.4796
149.1793
149.5188
149.3383
149.1485
149.5301
149.1623
149.6763
148.9540
149.5669
149.921
149.5168
149.2336
149.1711
149.4654
149.1738
149.6044
148.8612
149.5036
149.277
149.5465
149.1865
149.2711
149.4192
149.2000
149.5714
148.9125
149.5593
149.615
149.6219
149.1221
149.3440
149.4039
149.3030
149.5871
149.337
149.6183
149.217
149.6043
149.140
149.3536
149.3166
149.3200
149.4749
148.9606
149.5359
149.83
149.6076
148.9745
149.4309
149.2389
149.3484
149.4244
149.332
149.5583
149.808
149.6528
148.9357
149.4871
149.2087
149.4483
149.4163
149.1925
149.5676
149.584
149.6057
148.8850
149.4819
149.1155
149.4573
149.2732
149.1187
149.4722
149.828
149.5935
148.9190
149.5411
149.333
149.4802
149.2086
149.2061
149.4737
149.1925
149.6076
148.9364
149.5777
149.365
149.5668
149.1987
149.3739
149.4284
149.1739
149.5294
148.9283
149.5497
148.9917
149.5567
149.404
149.3009
149.3299
149.2227
149.5059
149.166
149.5762
148.9627
149.5673
148.9938
149.3968
149.3190
149.3420
149.4832
149.697
149.5960
149.288
149.6406
149.181
149.5220
149.2449
149.3484
149.3945
149.894
149.5439
149.237
149.6011
148.8992
149.4697
149.1425
149.3881
149.3511
149.1801
149.5264
149.382
149.5960
148.9213
149.5416
149.1300
149.5010
149.2934
149.2354
149.5187
149.1477
149.6453
148.9832
149.6018
149.590
149.5174
149.1931
149.2528
149.4424
149.1740
149.5725
148.9036
149.5393
148.9985
149.5344
149.1411
149.3368
149.3867
149.2072
149.5404
148.9635
149.5886
149.699
149.6442
149.618
149.3799
149.3630
149.3523
149.5632
149.550
149.6151
149.544
149.6371
148.9663
149.3868
149.2779
149.3794
149.4425
148.9979
149.5282
149.231
149.6194
148.9498
149.4671
149.1992
149.4058
149.3836
149.726
149.5510
149.1354
149.6751
148.9170
149.5044
149.1631
149.5186
149.3789
149.2006
149.5437
149.1323
149.6242
148.8753
149.4944
149.858
149.5268
149.2310
149.1556
149.4496
149.1589
149.6046
148.9140
149.5447
149.314
149.5548
149.1725
149.2454
149.4486
149.2524
149.6034
148.9475
149.5890
149.519
149.6268
149.1584
149.3806
149.4075
149.2718
149.5356
148.9492
149.5567
149.267
149.6141
148.9961
149.3372
149.3078
149.3144
149.4962
149.282
149.5774
149.156
149.6224
148.9626
149.4260
149.2963
149.4208
149.4636
149.967
149.5904
149.773
149.6737
149.68
149.5561
149.2117
149.4160
149.3596
149.1070
149.5288
149.819
149.6220
148.8767
149.4773
149.1012
149.4460
149.3098
149.2251
149.5021
149.757
149.5946
148.9129
149.5519
149.970
149.5387
149.2455
149.2858
149.4823
149.1777
149.6294
149.254
149.6317
149.195
149.5259
149.1392
149.3040
149.4042
149.1897
149.5425
148.9415
149.5597
148.9736
149.5450
149.916
149.4148
149.3475
149.2287
149.5082
149.187
149.6002
149.419
149.6330
149.351
149.4664
149.3239
149.3560
149.5206
149.1314
149.6232
149.263
149.6156
148.9557
149.4619
149.2339
149.3834
149.3944
149.818
149.5383
149.211
149.6065
148.9545
149.5253
149.1463
149.4101
149.3382
149.1562
149.5451
149.1449
149.6556
148.9267
149.5492
149.1209
149.5404
149.3245
149.2554
149.5125
149.1572
149.6036
148.8937
149.5233
149.509
149.5421
149.1622
149.2048
149.4066
149.1525
149.5639
148.9371
149.5564
148.9907
149.5410
149.1026
149.2960
149.3987
149.2854
149.5550
148.9487
149.5706
149.344
149.6286
149.745
149.3947
149.3400
149.3080
149.4764
148.9496
149.5318
149.291
149.6139
148.9210
149.3482
149.2376
149.3264
149.4339
149.311
149.5378
149.203
149.6142
148.8987
149.4209
149.2256
149.4578
149.3955
149.796
149.5398
149.957
149.6615
148.9515
149.5277
149.1414
149.4599
149.2961
149.1011
149.4855
149.1180
149.6138
148.8431
149.4687
149.591
149.5056
149.2495
149.1931
149.4528
149.1467
149.5928
148.8752
149.5296
149.776
149.5906
149.1827
149.2644
149.4427
149.2425
149.6163
148.9820
149.5994
149.240
149.5759
149.838
149.2887
149.3694
149.2651
149.5209
148.9146
149.5308
148.9961
149.5891
149.324
149.3825
149.3051
149.2992
149.4846
148.9922
149.5748
149.684
149.6574
148.9858
149.4547
149.2862
149.4102
149.4857
149.1413
149.6005
149.449
149.6227
148.9171
149.4531
149.1918
149.4195
149.3481
149.689
149.5075
149.534
149.6120
148.9287
149.5215
149.1004
149.4435
149.2869
149.1564
149.5163
149.1474
149.6316
148.9236
149.5635
149.821
149.5381
149.2761
149.3227
149.4807
149.1272
149.5629
148.9126
149.5435
149.112
149.5282
149.1195
149.2524
149.3799
149.1665
149.5402
148.9826
149.5791
148.9594
149.5313
149.601
149.3549
149.3755
149.2774
149.5289
149.258
149.6054
149.153
149.6242
149.617
149.4801
149.3080
149.2954
149.4504
149.417
149.5599
149.17
149.5971
148.9260
149.4315
149.2081
149.3369
149.4098
149.1321
149.5561
149.61
149.6023
148.9311
149.5062
149.1909
149.4573
149.3636
149.1818
149.5514
149.946
149.6509
148.9780
149.5807
149.1056
149.4701
149.2567
149.1991
149.4783
149.1038
149.5857
148.8961
149.5268
149.120
149.4765
149.2075
149.2857
149.4334
149.1354
149.5637
148.9359
149.5700
149.529
149.5905
149.1344
149.3240
149.4130
149.2657
149.5865
149.94
149.6071
149.223
149.5944
149.276
149.3353
149.3214
149.2863
149.4818
148.9513
149.5316
148.9779
149.5799
148.9858
149.4141
149.2495
149.3222
149.4352
149.142
149.5488
149.783
149.6550
148.9239
149.4472
149.2173
149.4401
149.4237
149.1138
149.5509
149.765
149.6167
148.8641
149.4373
149.1225
149.4491
149.2797
149.657
149.4555
149.667
149.5881
148.8799
149.4929
149.427
149.4667
149.2192
149.1521
149.4561
149.1731
149.6044
148.8785
149.5275
149.460
149.5620
149.2024
149.2655
149.4281
149.1902
149.5408
148.8644
149.5000
149.12
149.5591
149.480
149.2217
149.3212
149.2088
149.5064
148.9277
149.5272
148.9671
149.5621
148.9884
149.3147
149.3187
149.3225
149.4793
148.9516
149.5412
149.307
149.6364
148.9853
149.4118
149.2452
149.3310
149.3949
148.9662
149.4952
149.188
149.5916
148.8380
149.3550
149.1422
149.3608
149.3440
149.424
149.4794
149.165
149.5800
148.8375
149.4263
149.1254
149.4655
149.2921
149.977
149.4794
149.1083
149.6259
148.9029
149.5142
149.501
149.4736
149.1980
149.1266
149.4213
149.1334
149.5632
148.8147
149.4597
148.9951
149.5068
149.1514
149.2204
149.3841
149.1650
149.5415
148.8690
149.5179
149.350
149.5943
149.899
149.2892
149.3697
149.2777
149.5629
148.9775
149.5723
149.36
149.5798
148.9832
149.3077
149.2958
149.3006
149.4534
148.9111
149.5000
148.9964
149.5921
148.9485
149.3841
149.2162
149.3309
149.4063
148.9898
149.5288
149.618
149.6331
148.9022
149.4360
149.1943
149.4315
149.3985
149.1100
149.5298
149.443
149.5887
148.8440
149.4272
149.999
149.4377
149.2532
149.529
149.4373
149.666
149.5791
148.8682
149.4829
149.203
149.4631
149.1992
149.1455
149.4429
149.1637
149.5895
148.8720
149.5259
149.320
149.5566
149.1892
149.2744
149.4135
149.1724
149.5281
148.8665
149.4987
148.9844
149.5489
149.339
149.2290
149.3115
149.2143
149.5003
148.9268
149.5217
148.9569
149.5554
148.9719
149.3092
149.3063
149.3160
149.4689
148.9608
149.5413
149.192
149.6259
148.9802
149.4273
149.2416
149.3263
149.3826
148.9796
149.5027
149.147
149.5912
148.8480
149.3759
149.1420
149.3789
149.3486
149.715
149.4908
149.276
149.5913
148.8520
149.4499
149.1364
149.4819
149.3005
149.1375
149.4952
149.1155
149.6331
148.9429
149.5589
149.511
149.4752
149.2013
149.1682
149.4367
149.1355
149.5639
148.8415
149.4890
148.9920
149.5095
149.1561
149.2658
149.3895
149.1649
149.5360
148.8955
149.5440
149.335
149.5955
149.858
149.3305
149.3712
149.2702
149.5596
149.388
149.6031
148.9844
149.5700
148.9842
149.3474
149.2947
149.2941
149.4448
148.9448
149.5152
148.9809
149.5856
148.9574
149.4284
149.2115
149.3176
149.3935
149.232
149.5430
149.606
149.6330
148.9130
149.4696
149.1830
149.4209
149.3904
149.1853
149.5443
149.257
149.5740
148.8727
149.4676
149.852
149.4267
149.2451
149.1001
149.4442
149.544
149.5657
148.8977
149.5174
149.84
149.4554
149.1889
149.1844
149.4486
149.1633
149.5840
148.9169
149.5592
149.132
149.5462
149.1838
149.3533
149.4111
149.1530
149.5134
148.9058
149.5290
148.9793
149.5450
149.238
149.2829
149.3097
149.2022
149.4891
148.9957
149.5594
148.9471
149.5464
148.9754
149.3722
149.3071
149.3201
149.4683
149.362
149.5704
149.61
149.6217
149.105
149.5128
149.2295
149.3217
149.3809
149.676
149.5304
149.112
149.5930
148.8823
149.4507
149.1426
149.3847
149.3538
149.1836
149.5259
149.292
149.5980
148.9322
149.5488
149.1405
149.5077
149.3057
149.2504
149.5332
149.1604
149.6622
149.45
149.6241
149.808
149.5410
149.2187
149.2822
149.4681
149.2063
149.5992
148.9340
149.5707
149.249
149.5650
149.1730
149.3699
149.4178
149.2539
149.5778
148.9914
149.6169
149.1108
149.6868
149.928
149.4152
149.3953
149.4040
149.5978
149.937
149.6518
149.953
149.6804
149.39
149.4314
149.3180
149.4398
149.4839
149.460
149.5776
149.994
149.6851
148.9956
149.5200
149.2471
149.4739
149.4336
149.1449
149.6093
149.1855
149.7265
148.9907
149.5935
149.2204
149.5781
149.4314
149.3283
149.6132
149.1848
149.6820
148.9799
149.6058
149.1473
149.5900
149.2873
149.2938
149.5196
149.2138
149.6595
149.586
149.6731
149.750
149.6012
149.2234
149.4091
149.5154
149.3311
149.6599
149.887
149.6989
149.1191
149.7070
149.2064
149.5189
149.4557
149.3715
149.5838
149.828
149.6521
149.1149
149.7065
149.410
149.4660
149.3459
149.4245
149.5415
149.1477
149.6488
149.1260
149.7208
149.105
149.5350
149.3334
149.5614
149.4988
149.1926
149.6491
149.2138
149.7740
149.573
149.6374
149.2469
149.5742
149.4026
149.2307
149.5900
149.2160
149.7101
148.9620
149.5939
149.1540
149.5991
149.3478
149.3557
149.5632
149.2380
149.6848
149.239
149.6684
149.1694
149.6878
149.2740
149.4446
149.5448
149.3418
149.7025
149.1549
149.7435
149.1186
149.6750
149.1598
149.4674
149.4508
149.3718
149.6004
149.820
149.6564
149.815
149.6789
149.1107
149.5460
149.3695
149.4170
149.5481
149.1448
149.6739
149.1938
149.7618
149.390
149.5649
149.3305
149.5646
149.5421
149.2423
149.6644
149.1912
149.7304
148.9745
149.5532
149.2349
149.5755
149.3930
149.1967
149.5772
149.2037
149.7102
149.55
149.6224
149.1500
149.5955
149.3329
149.2999
149.5838
149.3009
149.7214
149.358
149.6823
149.1581
149.6892
149.3199
149.4818
149.5414
149.2899
149.6533
149.585
149.6679
149.1054
149.6746
149.1549
149.4447
149.4419
149.3428
149.6184
149.1505
149.6989
149.815
149.6853
149.1054
149.5430
149.4279
149.4807
149.5876
149.1781
149.7015
149.1810
149.7819
149.1071
149.6152
149.3404
149.5381
149.4967
149.1778
149.6374
149.2025
149.7463
148.9768
149.5599
149.2341
149.5699
149.4355
149.2647
149.6105
149.2166
149.7288
148.9880
149.6220
149.2249
149.6646
149.3694
149.3374
149.5960
149.3049
149.7578
149.1081
149.7254
149.1494
149.6495
149.2604
149.3854
149.5322
149.3238
149.6706
149.402
149.6679
149.1081
149.6775
149.2124
149.5282
149.4704
149.3462
149.6261
149.1434
149.7206
149.1783
149.7663
149.1432
149.5746
149.4394
149.5118
149.6406
149.2380
149.7349
149.1909
149.7656
149.585
149.5677
149.3463
149.5656
149.5065
149.1781
149.6495
149.2109
149.7647
149.543
149.6380
149.2583
149.5966
149.4468
149.2750
149.6613
149.3052
149.7951
149.564
149.6939
149.2380
149.6950
149.4372
149.4668
149.6442
149.2944
149.7258
149.673
149.6983
149.1774
149.6964
149.2752
149.4277
149.5353
149.3324
149.7015
149.1586
149.7445
149.1295
149.7115
149.2090
149.5337
149.5270
149.4959
149.6854
149.1715
149.7528
149.2204
149.8259
149.1951
149.6230
149.4511
149.5419
149.5951
149.1694
149.6980
149.2221
149.8009
149.472
149.5706
149.3397
149.5716
149.5384
149.2720
149.6904
149.2198
149.7806
149.558
149.6536
149.3155
149.6685
149.4805
149.3716
149.6841
149.2971
149.8073
149.1672
149.7813
149.2216
149.6530
149.3628
149.4165
149.6105
149.3230
149.7298
149.786
149.7077
149.1543
149.6888
149.3009
149.5000
149.5455
149.3808
149.6985
149.1163
149.7418
149.2361
149.8142
149.2153
149.5447
149.5164
149.5302
149.7178
149.2350
149.7814
149.2125
149.7943
149.1231
149.5724
149.4386
149.5585
149.5965
149.1983
149.7061
149.2099
149.7975
149.1443
149.6995
149.3451
149.5700
149.5319
149.3400
149.7349
149.3020
149.8291
149.1319
149.7509
149.3089
149.7062
149.5185
149.4588
149.7057
149.3526
149.7905
149.779
149.7125
149.2460
149.7483
149.3450
149.3985
149.5925
149.3925
149.7590
149.1233
149.7433
149.1920
149.7608
149.2740
149.4913
149.5834
149.4882
149.7389
149.1762
149.7804
149.2194
149.8278
149.2645
149.6710
149.5054
149.4834
149.6466
149.2356
149.7537
149.1985
149.7931
149.1251
149.6341
149.3927
149.5272
149.5932
149.3139
149.7360
149.2231
149.8015
149.1026
149.6845
149.3677
149.6998
149.5363
149.3435
149.7220
149.3511
149.8621
149.1522
149.7654
149.2817
149.7070
149.4238
149.3847
149.6572
149.3652
149.7890
149.740
149.7132
149.2112
149.7328
149.3694
149.5352
149.6051
149.3787
149.7470
149.1721
149.7913
149.2516
149.8200
149.2849
149.6063
149.5750
149.5264
149.7609
149.2711
149.8261
149.2568
149.8349
149.1660
149.5948
149.4894
149.6029
149.6445
149.2028
149.7362
149.2616
149.8454
149.1484
149.6781
149.4009
149.6283
149.5841
149.3159
149.7643
149.3398
149.8778
149.1692
149.7769
149.3596
149.7250
149.5708
149.5143
149.7552
149.3373
149.8202
149.1541
149.7784
149.2821
149.7532
149.4057
149.4623
149.6487
149.4167
149.8090
149.1782
149.7975
149.2462
149.8098
149.3311
149.5319
149.6360
149.5449
149.7967
149.2170
149.8244
149.2749
149.8848
149.3194
149.7128
149.5614
149.5429
149.7035
149.2870
149.8049
149.2490
149.8436
149.1734
149.6851
149.4456
149.5821
149.6450
149.3693
149.7910
149.2840
149.8591
149.1483
149.7350
149.4258
149.7622
149.5823
149.3957
149.7729
149.4015
149.9183
149.2148
149.8238
149.3325
149.7588
149.4717
149.4505
149.7058
149.4137
149.8306
149.1424
149.7831
149.2595
149.7787
149.4079
149.6005
149.6441
149.4324
149.7901
149.2292
149.8466
149.3200
149.8884
149.3083
149.6323
149.6085
149.6199
149.8054
149.3042
149.8549
149.2934
149.8774
149.2030
149.6422
149.5123
149.6309
149.6729
149.2701
149.7754
149.2787
149.8688
149.2149
149.7672
149.4145
149.6510
149.6032
149.4139
149.8052
149.3743
149.9003
149.1976
149.8151
149.3726
149.7889
149.5820
149.5263
149.7730
149.4323
149.8611
149.1431
149.7776
149.3119
149.8242
149.4109
149.4741
149.6603
149.4626
149.8299
149.2192
149.8304
149.2500
149.8267
149.3398
149.6124
149.6508
149.5710
149.8067
149.3088
149.8739
149.2873
149.8983
149.3262
149.7482
149.5681
149.6237
149.7144
149.2926
149.8156
149.3352
149.9059
149.1601
149.6814
149.4555
149.6873
149.6553
149.3811
149.8021
149.3367
149.8958
149.1735
149.7745
149.4325
149.7874
149.5946
149.5038
149.8012
149.4174
149.9271
149.2793
149.8924
149.3415
149.8002
149.4751
149.5401
149.7203
149.4881
149.8535
149.1718
149.8134
149.3035
149.8593
149.3912
149.5940
149.6469
149.5397
149.8134
149.2343
149.8520
149.3345
149.9214
149.3219
149.7205
149.6144
149.6339
149.8051
149.4202
149.9108
149.3109
149.8972
149.2378
149.7468
149.5133
149.6991
149.6756
149.3536
149.8134
149.3633
149.9201
149.2172
149.7976
149.4210
149.7652
149.6070
149.4381
149.8190
149.4661
149.9528
149.2397
149.8715
149.3915
149.8563
149.5853
149.6468
149.7939
149.4713
149.8798
149.2525
149.8772
149.3437
149.8823
149.4080
149.5944
149.6834
149.5652
149.8561
149.2857
149.8805
149.3244
149.9221
149.3361
149.6820
149.6625
149.6820
149.8273
149.3889
149.9252
149.3713
149.9797
149.3527
149.8561
149.5751
149.7066
149.7243
149.4281
149.8688
149.3966
149.9423
149.1795
149.7539
149.4289
149.7548
149.6127
149.4316
149.7772
149.3805
149.8851
149.1616
149.7863
149.3775
149.8119
149.5156
149.5301
149.7405
149.4481
149.8856
149.2749
149.8767
149.3016
149.8094
149.3809
149.5541
149.6518
149.5286
149.7971
149.1806
149.7874
149.2839
149.8627
149.3197
149.6470
149.5790
149.5717
149.7504
149.3051
149.8490
149.3496
149.9237
149.2809
149.7747
149.5451
149.7180
149.7496
149.4570
149.8703
149.4013
149.9244
149.2129
149.7621
149.4499
149.7709
149.6074
149.4411
149.7826
149.4159
149.9057
149.2937
149.8718
149.3641
149.7960
149.5383
149.5899
149.7838
149.5737
149.9262
149.2931
149.8930
149.4000
149.9387
149.5092
149.7321
149.7308
149.5970
149.8477
149.3610
149.8965
149.3675
149.9202
149.3521
149.7327
149.6233
149.6787
149.8041
149.4313
149.8964
149.4095
149.9637
149.3206
149.8060
149.6023
149.8173
149.7651
149.5606
149.9173
149.5045
150.197
149.3982
149.9438
149.5233
149.8891
149.6554
149.5712
149.8457
149.5730
149.9812
149.3411
149.9114
149.4472
149.9162
149.6067
149.7640
149.8148
149.6373
149.9529
149.4223
149.9851
149.5249
150.509
149.5310
149.8330
149.7926
149.7988
149.9810
149.6109
150.603
149.5426
150.590
149.4540
149.8894
149.7056
149.8899
149.8667
149.5735
149.9722
149.5723
150.789
149.5049
150.223
149.6287
149.9399
149.7970
149.7256
150.46
149.7384
150.1353
149.5220
150.678
149.6256
150.853
149.7886
149.9257
149.9839
149.7931
150.737
149.5503
150.754
149.6276
150.1376
149.6271
149.8957
149.8720
149.8660
150.540
149.7073
150.1353
149.6525
150.1732
149.6059
150.349
149.8650
150.519
150.323
149.8237
150.1612
149.7731
150.2575
149.6923
150.1919
149.7951
150.1284
149.9251
149.8621
150.1001
149.8440
150.2240
149.6566
150.1711
149.7283
150.1750
149.8615
150.155
150.619
149.9351
150.1962
149.7422
150.2370
149.8034
150.2983
149.7932
150.1249
150.229
150.989
150.2097
149.9274
150.2961
149.8284
150.2973
149.7327
150.1799
149.9303
150.1858
150.852
149.9083
150.2075
149.8876
150.3258
149.7989
150.2904
149.8769
150.2711
150.143
150.490
150.2220
150.624
150.3681
149.8777
150.3653
149.9326
150.4112
149.9982
150.2501
150.1944
150.1541
150.3040
149.9537
150.3697
149.9682
150.4438
149.8757
150.2600
150.872
150.2587
150.2709
150.1009
150.3929
150.496
150.4760
149.9152
150.3914
150.793
150.4304
150.2234
150.2345
150.3933
150.2028
150.5326
150.711
150.5315
150.680
150.4911
150.1000
150.3015
150.3125
150.2858
150.4540
150.731
150.4858
150.679
150.5350
150.644
150.4442
150.2452
150.3876
150.3927
150.2106
150.5277
150.2245
150.6308
150.806
150.5312
150.1976
150.5382
150.3708
150.3832
150.5170
150.2959
150.5884
150.1061
150.5589
150.1639
150.5910
150.2022
150.3975
150.3973
150.3647
150.5540
150.2359
150.6167
150.2011
150.6488
150.1566
150.5245
150.3718
150.5417
150.5232
150.3425
150.6275
150.3247
150.7335
150.2525
150.6866
150.3058
150.6307
150.4029
150.4111
150.5603
150.3891
150.6764
150.2214
150.6565
150.2712
150.6959
150.3277
150.5782
150.5098
150.5042
150.6372
150.3186
150.7071
150.3682
150.8002
150.3073
150.6883
150.4598
150.6798
150.6351
150.5399
150.7489
150.4573
150.7928
150.2913
150.7135
150.3805
150.7393
150.4830
150.5593
150.6436
150.5290
150.7765
150.4110
150.8079
150.4082
150.8280
150.4092
150.6873
150.6170
150.7090
150.7669
150.5218
150.8375
150.5125
150.9232
150.4739
150.8706
150.5603
150.8151
150.6629
150.6220
150.7926
150.6041
150.9046
150.4429
150.8514
150.4923
150.8804
150.5879
150.7783
150.7589
150.7195
150.8782
150.5663
150.9329
150.6035
151.130
150.5635
150.9133
150.7108
150.9044
150.8785
150.7725
150.9749
150.6934
151.143
150.5491
150.9420
150.6289
150.9665
150.7197
150.7935
150.8680
150.7610
150.9944
150.6561
151.266
150.6528
151.492
150.6520
150.9427
150.8459
150.9576
150.9860
150.8029
151.664
150.7787
151.1478
150.7291
151.1076
150.7894
151.619
150.8713
150.8640
150.9937
150.8501
151.1074
150.7058
151.820
150.7397
151.1164
150.7956
151.305
150.9533
150.9824
151.743
150.8356
151.1430
150.8536
151.2257
150.8003
151.1576
150.9035
151.1496
151.523
151.335
151.1638
150.9663
151.2177
150.8222
151.1830
150.8590
151.2199
150.8903
151.710
151.445
151.450
151.1782
150.9424
151.2381
150.9164
151.2785
150.8654
151.1932
151.82
151.2282
151.1486
151.842
151.2516
151.648
151.3611
150.9954
151.3524
151.86
151.3281
151.317
151.1779
151.1762
151.1646
151.2936
151.119
151.3150
151.156
151.3771
151.90
151.3232
151.1099
151.2962
151.2346
151.1580
151.3438
151.1657
151.4506
151.754
151.4273
151.1234
151.4544
151.1978
151.3595
151.3309
151.3039
151.4093
151.1393
151.4244
151.1369
151.4870
151.950
151.3953
151.2036
151.3961
151.3459
151.2996
151.4460
151.2597
151.5238
151.1665
151.5070
151.2319
151.5639
151.2839
151.4622
151.4282
151.4383
151.5533
151.3409
151.6011
151.3035
151.6141
151.2322
151.5242
151.3168
151.5245
151.4251
151.3881
151.5227
151.3665
151.6168
151.2976
151.6188
151.3130
151.6308
151.3473
151.5294
151.4977
151.5423
151.6234
151.4329
151.6759
151.4257
151.7429
151.4010
151.7055
151.4491
151.6677
151.5187
151.5227
151.6128
151.5019
151.7042
151.3898
151.6836
151.3988
151.7151
151.4274
151.6528
151.5482
151.6138
151.6484
151.4900
151.7096
151.5025
151.7952
151.4471
151.7484
151.5023
151.7603
151.6056
151.6778
151.7118
151.6298
151.7697
151.4864
151.7524
151.4891
151.8038
151.4719
151.7089
151.5698
151.6905
151.6910
151.6098
151.7723
151.5794
151.8306
151.5018
151.7995
151.5647
151.8448
151.6307
151.7574
151.7503
151.7459
151.8650
151.6693
151.9021
151.6335
151.9053
151.5679
151.8182
151.6369
151.8181
151.7361
151.7017
151.8130
151.6795
151.8968
151.6251
151.9042
151.6338
151.9128
151.6536
151.8287
151.7832
151.8497
151.9021
151.7593
151.9529
151.7405
152.68
151.7095
151.9825
151.7475
151.9621
151.7974
151.8427
151.8813
151.8194
151.9638
151.7191
151.9646
151.7212
152.26
151.7327
151.9592
151.8161
151.9409
151.9154
151.8437
151.9930
151.8584
152.834
151.8035
152.681
151.8272
152.841
151.8808
152.245
151.9792
151.9832
152.397
151.8624
152.537
151.8503
152.1076
151.8042
152.444
151.8527
152.424
151.9463
151.9774
152.371
151.9510
152.1065
151.8681
152.1091
151.9008
152.1693
151.9052
152.1061
151.9917
152.949
152.931
152.233
152.1523
151.9868
152.1814
151.9097
152.1426
151.9170
152.1454
151.9398
152.513
152.342
152.351
152.1218
151.9702
152.1583
151.9592
152.1983
151.9299
152.1536
151.9872
152.1662
152.666
152.830
152.1470
152.773
152.2304
152.273
152.2418
152.121
152.2349
151.9760
152.1405
152.312
152.1196
152.1038
152.220
152.1480
152.7
152.1998
151.9700
152.1980
151.9814
152.1920
152.109
152.1108
152.1050
152.1233
152.1956
152.516
152.2224
152.440
152.2669
152.262
152.2314
152.492
152.1982
152.859
152.919
152.1337
152.599
152.1857
151.9764
152.1721
151.9791
152.1977
151.9826
152.1472
152.406
152.1273
152.1175
152.539
152.1704
152.481
152.2290
152.32
152.2076
152.236
152.2205
152.581
152.1636
152.1287
152.1320
152.1735
152.292
152.1704
151.9939
152.1890
151.9493
152.1310
151.9788
152.1191
152.407
152.685
152.1115
152.492
152.1697
151.9829
152.1615
151.9872
152.1899
151.9878
152.1402
152.488
152.1455
152.1348
152.788
152.1656
152.291
152.1697
151.9532
152.1210
151.9450
152.1157
151.9474
152.226
152.21
152.14
152.784
151.9895
152.1544
152.167
152.2158
152.320
152.2212
152.1108
152.2742
152.2010
152.2489
152.2940
152.2556
152.3721
152.2272
152.3972
152.2321
152.4118
152.2159
152.3527
152.2533
152.3420
152.3175
152.2673
152.3608
152.2574
152.4151
152.2417
152.4275
152.2608
152.4371
152.2829
152.3820
152.3668
152.3971
152.4483
152.3499
152.4863
152.3461
152.5261
152.3332
152.5090
152.3559
152.4963
152.3862
152.4088
152.4297
152.3809
152.4749
152.3076
152.4659
152.3054
152.4923
152.3112
152.4652
152.3565
152.4467
152.4205
152.3766
152.4667
152.3756
152.5247
152.3361
152.5146
152.3540
152.5354
152.3818
152.4933
152.4425
152.4540
152.4750
152.3675
152.4831
152.3365
152.5050
152.2912
152.4583
152.3086
152.4547
152.3632
152.4059
152.4299
152.3941
152.4898
152.3341
152.4939
152.3440
152.5352
152.3359
152.4885
152.3847
152.4898
152.4628
152.4361
152.5087
152.4055
152.5317
152.3425
152.5058
152.3281
152.5018
152.3247
152.4259
152.3846
152.4147
152.4567
152.3677
152.4918
152.3540
152.5277
152.3251
152.4985
152.3568
152.5149
152.4088
152.4585
152.4784
152.4530
152.5500
152.4115
152.5653
152.3949
152.5645
152.3504
152.4881
152.3703
152.4719
152.4234
152.3927
152.4660
152.3824
152.5234
152.3475
152.5213
152.3483
152.5258
152.3527
152.4623
152.4193
152.4697
152.4997
152.4180
152.5389
152.4114
152.5813
152.3870
152.5632
152.3989
152.5442
152.4114
152.4574
152.4575
152.4309
152.5054
152.3501
152.5014
152.3480
152.5334
152.3444
152.5047
152.3812
152.4986
152.4467
152.4396
152.5079
152.4280
152.5579
152.3823
152.5580
152.3946
152.5782
152.4092
152.5417
152.4690
152.5112
152.5088
152.4241
152.5236
152.3901
152.5469
152.3362
152.5086
152.3544
152.5158
152.3955
152.4739
152.4670
152.4470
152.5181
152.3794
152.5305
152.3852
152.5733
152.3707
152.5341
152.4073
152.5371
152.4808
152.4850
152.5330
152.4539
152.5595
152.3707
152.5233
152.3507
152.5316
152.3384
152.4644
152.3928
152.4459
152.4611
152.4015
152.5096
152.3842
152.5437
152.3481
152.5272
152.3784
152.5503
152.4122
152.4896
152.4799
152.4801
152.5488
152.4312
152.5682
152.3989
152.5611
152.3417
152.4920
152.3554
152.4812
152.4002
152.3985
152.4497
152.3886
152.5147
152.3581
152.5293
152.3583
152.5445
152.3561
152.4918
152.4245
152.5082
152.5081
152.4582
152.5594
152.4543
152.6112
152.4263
152.6008
152.4247
152.5795
152.4177
152.4932
152.4576
152.4564
152.4978
152.3669
152.4978
152.3410
152.5157
152.3129
152.4794
152.3361
152.4706
152.3925
152.4117
152.4586
152.4082
152.5232
152.3634
152.5352
152.3745
152.5644
152.3866
152.5346
152.4356
152.5170
152.4906
152.4429
152.5256
152.4117
152.5532
152.3497
152.5231
152.3608
152.5305
152.3857
152.4897
152.4556
152.4682
152.5130
152.3948
152.5285
152.3945
152.5739
152.3733
152.5471
152.4006
152.5449
152.4594
152.4986
152.5238
152.4759
152.5628
152.3988
152.5489
152.3831
152.5669
152.3630
152.5078
152.4103
152.5072
152.4920
152.4689
152.5471
152.4521
152.5935
152.4064
152.5796
152.4208
152.6015
152.4344
152.5444
152.5017
152.5387
152.5736
152.4793
152.5967
152.4564
152.6157
152.4025
152.5601
152.3998
152.5461
152.4267
152.4702
152.4894
152.4581
152.5521
152.4170
152.5729
152.4041
152.5886
152.3912
152.5467
152.4444
152.5592
152.5155
152.5024
152.5721
152.4899
152.6268
152.4530
152.6247
152.4464
152.6125
152.4250
152.5304
152.4660
152.5179
152.5284
152.4384
152.5491
152.4172
152.5836
152.3948
152.5745
152.4163
152.5800
152.4535
152.5251
152.5308
152.5191
152.5924
152.4624
152.6121
152.4651
152.6504
152.4561
152.6213
152.4763
152.5863
152.5071
152.4953
152.5400
152.4613
152.5748
152.3852
152.5534
152.3883
152.5734
152.4020
152.5399
152.4597
152.5220
152.5251
152.4521
152.5611
152.4573
152.6212
152.4262
152.6063
152.4383
152.6053
152.4744
152.5652
152.5412
152.5356
152.5797
152.4446
152.5708
152.4169
152.5909
152.3747
152.5369
152.4019
152.5317
152.4611
152.4800
152.5171
152.4583
152.5704
152.4040
152.5690
152.4082
152.5931
152.4078
152.5530
152.4636
152.5497
152.5406
152.4963
152.5820
152.4599
152.5938
152.3951
152.5585
152.3880
152.5552
152.3902
152.4777
152.4525
152.4669
152.5229
152.4189
152.5513
152.4026
152.5771
152.3731
152.5429
152.4095
152.5610
152.4699
152.5082
152.5381
152.4926
152.5943
152.4438
152.6023
152.4326
152.6068
152.4048
152.5436
152.4290
152.5147
152.4770
152.4285
152.5126
152.4127
152.5599
152.3816
152.5615
152.3935
152.5724
152.4091
152.5140
152.4822
152.5177
152.5546
152.4588
152.5850
152.4516
152.6274
152.4330
152.6078
152.4463
152.5873
152.4659
152.5011
152.5090
152.4754
152.5568
152.4035
152.5570
152.3933
152.5759
152.3859
152.5458
152.4311
152.5382
152.4987
152.4760
152.5529
152.4753
152.6134
152.4306
152.6068
152.4491
152.6368
152.4721
152.5949
152.5240
152.5682
152.5681
152.4746
152.5750
152.4367
152.5958
152.3871
152.5582
152.4053
152.5650
152.4483
152.5240
152.5215
152.4990
152.5737
152.4402
152.5913
152.4451
152.6323
152.4332
152.5989
152.4718
152.5993
152.5440
152.5539
152.5993
152.5190
152.6232
152.4401
152.5951
152.4218
152.6018
152.4037
152.5293
152.4566
152.5196
152.5273
152.4714
152.5722
152.4517
152.6076
152.4128
152.5895
152.4343
152.6056
152.4620
152.5470
152.5328
152.5397
152.6038
152.4933
152.6283
152.4646
152.6287
152.4087
152.5604
152.4205
152.5536
152.4654
152.4721
152.5152
152.4623
152.5797
152.4261
152.5930
152.4248
152.6076
152.4165
152.5543
152.4723
152.5667
152.5510
152.5053
152.5959
152.4870
152.6388
152.4561
152.6349
152.4606
152.6241
152.4538
152.5444
152.5015
152.5149
152.5487
152.4389
152.5686
152.4270
152.6005
152.4050
152.5790
152.4284
152.5758
152.4763
152.5197
152.5484
152.5098
152.6064
152.4581
152.6192
152.4607
152.6468
152.4553
152.6077
152.4882
152.5789
152.5283
152.4860
152.5517
152.4529
152.5855
152.3923
152.5638
152.3942
152.5685
152.4114
152.5283
152.4750
152.5117
152.5397
152.4451
152.5688
152.4446
152.6185
152.4135
152.5901
152.4418
152.6018
152.4917
152.5539
152.5537
152.5269
152.5927
152.4411
152.5756
152.4043
152.5787
152.3708
152.5231
152.4042
152.5106
152.4683
152.4623
152.5254
152.4372
152.5663
152.3859
152.5588
152.4000
152.5850
152.4099
152.5359
152.4737
152.5322
152.5515
152.4791
152.5848
152.4464
152.5944
152.3800
152.5396
152.3788
152.5395
152.4023
152.4655
152.4638
152.4466
152.5239
152.3981
152.5454
152.3848
152.5677
152.3609
152.5191
152.4029
152.5363
152.4775
152.4780
152.5344
152.4692
152.5937
152.4237
152.5913
152.4154
152.5882
152.3933
152.5097
152.4262
152.4839
152.4787
152.4026
152.5061
152.3863
152.5482
152.3613
152.5416
152.3756
152.5433
152.4030
152.4785
152.4749
152.4817
152.5478
152.4304
152.5728
152.4206
152.6016
152.4031
152.5711
152.4270
152.5476
152.4566
152.4569
152.4923
152.4255
152.5346
152.3581
152.5229
152.3516
152.5337
152.3595
152.5028
152.4148
152.4889
152.4804
152.4261
152.5268
152.4231
152.5799
152.3909
152.5707
152.4106
152.5829
152.4383
152.5334
152.5008
152.5004
152.5367
152.4122
152.5347
152.3820
152.5554
152.3443
152.5097
152.3729
152.5116
152.4317
152.4623
152.4960
152.4420
152.5491
152.3871
152.5529
152.3972
152.5882
152.3994
152.5489
152.4543
152.5494
152.5329
152.4938
152.5736
152.4654
152.5963
152.3999
152.5610
152.3862
152.5553
152.3870
152.4887
152.4547
152.4777
152.5186
152.4179
152.5447
152.4002
152.5733
152.3753
152.5479
152.4073
152.5610
152.4597
152.5010
152.5262
152.4934
152.5908
152.4470
152.6027
152.4282
152.5995
152.3929
152.5335
152.4159
152.5036
152.4620
152.4292
152.5079
152.4160
152.5588
152.3843
152.5626
152.3897
152.5670
152.3982
152.5046
152.4642
152.5083
152.5408
152.4537
152.5753
152.4463
152.6187
152.4254
152.6007
152.4354
152.5797
152.4492
152.4986
152.4985
152.4677
152.5421
152.3864
152.5365
152.3706
152.5529
152.3701
152.5346
152.4135
152.5298
152.4785
152.4628
152.5336
152.4568
152.5903
152.4065
152.5799
152.4217
152.6083
152.4407
152.5689
152.4928
152.5321
152.5305
152.4371
152.5385
152.4234
152.5781
152.3601
152.5285
152.3723
152.5322
152.4157
152.4947
152.4929
152.4751
152.5466
152.4168
152.5672
152.4226
152.6091
152.4074
152.5741
152.4495
152.5744
152.5171
152.5233
152.5708
152.4971
152.6011
152.4199
152.5747
152.3982
152.5776
152.3872
152.5155
152.4403
152.5116
152.5189
152.4646
152.5630
152.4394
152.5943
152.3937
152.5696
152.4188
152.5926
152.4577
152.5518
152.5353
152.5453
152.6058
152.4880
152.6219
152.4578
152.6212
152.4168
152.5714
152.4282
152.5574
152.4639
152.4742
152.5135
152.4534
152.5661
152.4117
152.5780
152.4102
152.5931
152.4085
152.5483
152.4617
152.5484
152.5337
152.4921
152.5821
152.4804
152.6304
152.4501
152.6249
152.4461
152.6065
152.4408
152.5297
152.4876
152.4999
152.5357
152.4264
152.5513
152.4087
152.5806
152.3861
152.5598
152.4112
152.5586
152.4678
152.5227
152.5483
152.5179
152.6072
152.4583
152.6167
152.4522
152.6353
152.4596
152.6172
152.5004
152.5944
152.5389
152.5084
152.5713
152.4708
152.6016
152.4192
152.5873
152.4272
152.5986
152.4440
152.5647
152.5083
152.5468
152.5719
152.4954
152.6133
152.4949
152.6614
152.4697
152.6419
152.4866
152.6414
152.5309
152.6030
152.5990
152.5765
152.6322
152.5011
152.6351
152.4731
152.6442
152.4353
152.5887
152.4767
152.6015
152.5486
152.5606
152.6098
152.5392
152.6570
152.4931
152.6589
152.5039
152.6868
152.5164
152.6563
152.5785
152.6560
152.6564
152.6051
152.6954
152.5823
152.7162
152.5306
152.6869
152.5393
152.6982
152.5293
152.6012
152.5752
152.5997
152.6563
152.5611
152.6920
152.5485
152.7169
152.5303
152.6967
152.5696
152.7148
152.6217
152.6803
152.7036
152.6709
152.7621
152.6203
152.7706
152.6129
152.7794
152.5810
152.7151
152.5980
152.6977
152.6510
152.6438
152.7125
152.6396
152.7617
152.5966
152.7622
152.5924
152.7645
152.6143
152.7442
152.6845
152.7485
152.7575
152.7035
152.8058
152.7047
152.8571
152.6756
152.8390
152.6739
152.8267
152.6919
152.7717
152.7400
152.7335
152.7813
152.6907
152.8192
152.6716
152.8386
152.7223
152.8808
152.7350
152.8543
152.7400
152.7643
152.7911
152.7619
152.8642
152.7571
152.9094
152.7625
152.9330
152.7551
152.9071
152.7964
152.9027
152.8398
152.8316
152.8753
152.7971
152.9110
152.7482
152.9064
152.7634
152.9313
152.7717
152.9047
152.8260
152.9027
152.9005
152.8768
152.9639
152.8641
153.45
152.8405
153.102
152.8651
153.312
152.8939
153.30
152.9533
152.9850
152.9976
152.9210
153.154
152.8786
153.284
152.8564
153.195
152.8814
153.282
152.9124
152.9886
152.9781
152.9760
153.438
152.9658
153.912
152.9535
153.1130
152.9377
153.1041
152.9959
153.1349
153.411
153.756
153.870
153.546
153.1251
152.9961
153.1247
152.9692
153.1300
152.9519
153.952
152.9940
153.1063
153.524
153.610
153.1064
153.545
153.1666
153.407
153.1859
153.347
153.1977
153.476
153.1908
153.1084
153.1992
153.1697
153.1477
153.2125
153.1398
153.2552
153.1096
153.2446
153.801
153.2269
153.745
153.1916
153.1225
153.1682
153.1759
153.1517
153.2404
153.1559
153.2922
153.1451
153.2968
153.1640
153.3176
153.1779
153.2847
153.2479
153.3020
153.3233
153.2675
153.3618
153.2423
153.3720
153.2154
153.3565
153.2122
153.3488
153.2220
153.3043
153.2839
153.3126
153.3547
153.2853
153.3910
153.2820
153.4304
153.2762
153.4211
153.3074
153.4503
153.3432
153.4203
153.4127
153.4322
153.4831
153.4052
153.5144
153.3986
153.5316
153.3668
153.4973
153.3733
153.4992
153.3996
153.4616
153.4635
153.4644
153.5243
153.4511
153.5643
153.4726
153.6093
153.4685
153.5968
153.5095
153.6249
153.5545
153.6222
153.6255
153.6469
153.6836
153.6336
153.7085
153.6487
153.7302
153.6347
153.6955
153.6433
153.7013
153.6652
153.6860
153.7258
153.7050
153.6821
153.6688
153.6755
153.6960
153.6944
153.6681
153.6436
153.6483
153.6356
153.6108
153.5870
153.5724
153.5512
153.5130
153.4542
153.4160
153.3793
153.3260
153.2478
153.1744
153.1249
153.707
153.34
152.9351
152.8815
152.8179
152.7472
152.6636
152.5988
152.5421
152.4785
152.3833
152.2893
152.2256
152.1520
152.766
151.9895
151.9144
151.8414
151.7596
151.6531
151.5565
151.4782
151.3891
151.2778
151.1600
151.659
150.9745
150.8910
150.7817
150.6910
150.6120
150.5219
150.4239
150.3200
150.2413
150.1632
150.733
149.9559
149.8563
149.7795
149.6953
149.6003
149.5048
149.4206
149.3340
149.2406
149.1214
149.168
148.9270
148.8300
148.7075
148.5799
148.4792
148.3826
148.2908
148.1728
148.706
147.9805
147.8794
147.7747
147.6593
147.5714
147.4877
147.3973
147.2726
147.1575
147.740
146.9802
146.8879
146.7774
146.6817
146.5883
146.4870
146.3689
146.2447
146.1524
146.524
145.9379
145.7991
145.6742
145.5756
145.4716
145.3644
145.2474
145.1479
145.528
144.9482
144.8301
144.7151
144.6272
144.5356
144.4317
144.3013
144.1880
144.1014
144.13
143.8991
143.7860
143.6834
143.5853
143.4802
143.3535
143.2245
143.1251
143.200
142.9021
142.7555
142.6244
142.5222
142.4112
142.3040
142.1743
142.651
141.9653
141.8530
141.7344
141.6060
141.5071
141.4129
141.3105
141.1721
141.417
140.9462
140.8470
140.7494
140.6222
140.5097
140.4039
140.2933
140.1757
140.316
139.9096
139.8072
139.6940
139.5576
139.4094
139.2794
139.1739
139.610
138.9418
138.8101
138.6971
138.5913
138.4731
138.3480
138.2164
138.1140
138.168
137.9097
137.7687
137.6318
137.5288
137.4283
137.3201
137.1913
137.706
136.9574
136.8462
136.7289
136.5850
136.4427
136.3363
136.2216
136.945
135.9352
135.7910
135.6762
135.5586
135.4482
135.3031
135.1762
135.620
134.9461
134.8236
134.6823
134.5544
134.4544
134.3513
134.2376
134.833
133.9424
133.8369
133.7273
133.6179
133.4845
133.3583
133.2402
133.1235
132.9965
132.8503
132.7017
132.5891
132.4762
132.3508
132.1894
132.312
131.9022
131.7899
131.6691
131.5405
131.3978
131.2718
131.1569
131.324
130.9052
130.7559
130.6359
130.5365
130.4281
130.3009
130.1364
129.9985
129.8966
129.7821
129.6697
129.5236
129.3952
129.2705
129.1479
129.164
128.8676
128.7112
128.5933
128.4797
128.3526
128.1945
128.289
127.8890
127.7767
127.6484
127.5273
127.3714
127.2433
127.1245
127.41
126.8748
126.7280
126.5891
126.4808
126.3752
126.2570
126.1110
125.9483
125.8167
125.7159
125.5905
125.4729
125.3206
125.1875
125.601
124.9366
124.8034
124.6547
124.4891
124.3637
124.2503
124.1216
123.9717
123.7955
123.6452
123.5268
123.4037
123.2791
123.1283
122.9817
122.8580
122.7423
122.6110
122.4793
122.3203
122.1859
122.823
121.9714
121.8483
121.6917
121.5291
121.3999
121.2967
121.1675
121.459
120.8904
120.7550
120.6250
120.4939
120.3574
120.2143
120.427
119.9019
119.7922
119.6675
119.5303
119.3543
119.1896
119.512
118.9373
118.8037
118.6834
118.5225
118.3848
118.2611
118.1437
118.112
117.8778
117.7163
117.5849
117.4794
117.3663
117.2421
117.890
116.9191
116.7839
116.6824
116.5592
116.4300
116.2831
116.1299
116.12
115.8714
115.7410
115.6010
115.4382
115.2697
115.1440
115.351
114.9051
114.7609
114.5765
114.4159
114.2827
114.1734
114.396
113.9194
113.7571
113.6159
113.4935
113.3732
113.2465
113.1187
112.9610
112.8120
112.6996
112.5932
112.4699
112.3375
112.1608
112.73
111.8892
111.7871
111.6542
111.5243
111.3613
111.2096
111.820
110.9491
110.8145
110.6781
110.5181
110.3460
110.2192
110.1142
109.9849
109.8459
109.6751
109.4991
109.3601
109.2508
109.1305
108.9979
108.8735
108.7093
108.5847
108.4669
108.3474
108.2160
108.916
107.9315
107.7858
107.6781
107.5736
107.4533
107.3245
107.1549
106.9907
106.8650
106.7689
106.6471
106.5044
106.3700
106.1970
106.625
105.9371
105.8053
105.6703
105.5326
105.3624
105.1975
105.791
104.9779
104.8472
104.7083
104.5416
104.3645
104.2310
104.1233
104.173
103.8808
103.7709
103.6133
103.4675
103.3559
103.2433
103.1198
102.9877
102.8595
102.6912
102.5571
102.4586
102.3518
102.2300
102.1034
101.9333
101.7581
101.6343
101.5376
101.4252
101.2794
101.1587
100.9962
100.8408
100.7189
100.5877
100.4550
100.3165
100.1854
100.148
99.8592
99.7534
99.6549
99.5258
99.3925
99.2368
99.557
98.9232
98.8199
98.7274
98.5999
98.4837
98.3617
98.1901
98.735
97.9696
97.8534
97.7241
97.5979
97.4691
97.3033
97.1779
97.844
96.9796
96.8565
96.7325
96.5806
96.3989
96.2750
96.1772
96.748
95.9382
95.8028
95.6766
95.5067
95.3855
95.2748
95.1472
95.206
94.8952
94.7724
94.6039
94.4523
94.3525
94.2669
94.1436
94.184
93.8867
93.7082
93.5670
93.4630
93.3796
93.2697
93.1362
93.384
92.9035
92.7498
92.6482
92.5470
92.4276
92.3009
92.1796
92.628
91.8982
91.7658
91.6765
91.5900
91.4738
91.3450
91.2205
91.434
90.8839
90.7791
90.6961
90.5979
90.4599
90.3366
90.2187
90.460
89.9250
89.8276
89.7014
89.5761
89.4584
89.3477
89.2038
89.434
88.9325
88.8638
88.7664
88.6386
88.5142
88.3879
88.2149
88.834
87.9903
87.9129
87.8152
87.6907
87.5894
87.4885
87.3197
87.2029
87.1166
87.111
86.8915
86.7683
86.6596
86.5392
86.3776
86.2592
86.1849
86.964
85.9818
85.8660
85.7575
85.6063
85.4263
85.3143
85.2348
85.1564
85.366
84.9028
84.8053
84.6887
84.5255
84.4192
84.3312
84.2200
84.964
83.9797
83.8751
83.7501
83.5881
83.4690
83.4064
83.3461
83.2293
83.1050
83.4
82.8699
82.6978
82.5778
82.4981
82.4333
82.3418
82.2134
82.1128
82.443
81.8959
81.7565
81.6798
81.6041
81.4887
81.3669
81.2543
81.1674
81.409
80.8860
80.7831
80.7198
80.6530
80.5418
80.4253
80.3281
80.2046
80.252
79.8948
79.8163
79.7561
79.6685
79.5473
79.4269
79.3519
79.2292
79.675
78.9762
78.9058
78.8055
78.6765
78.5627
78.4654
78.3764
78.2308
78.848
78.12
77.9607
77.8866
77.7649
77.6511
77.5624
77.4434
77.2743
77.1613
77.937
77.373
76.9603
76.8416
76.7277
76.6743
76.5882
76.4227
76.3204
76.2667
76.1926
76.729
75.9509
75.8454
75.7680
75.6703
75.5124
75.4007
75.3508
75.3120
75.2119
75.895
74.9866
74.9033
74.7760
74.5956
74.4894
74.4351
74.3847
74.2927
74.1737
74.569
73.9890
73.9155
73.7544
73.6306
73.5766
73.5159
73.4056
73.2792
73.1769
73.975
73.329
72.8927
72.7445
72.6642
72.6307
72.5855
72.4742
72.3627
72.2829
72.2099
72.637
71.8986
71.8170
71.7722
71.7320
71.6540
71.5473
71.4482
71.4007
71.3495
71.1914
71.551
71.64
70.9643
70.8820
70.7579
70.6491
70.5662
70.5130
70.4238
70.2648
70.1532
70.1146
70.888
70.92
69.8960
69.7980
69.7337
69.6688
69.5089
69.3429
69.2682
69.2352
69.1972
69.1106
68.9964
68.8913
68.8305
68.7978
68.6600
68.5077
68.4488
68.4171
68.3489
68.2225
68.1098
68.314
67.9692
67.9166
67.7844
67.6343
67.5666
67.5529
67.5394
67.4483
67.3277
67.2437
67.1956
67.1361
66.9755
66.8302
66.7745
66.7474
66.7251
66.6552
66.5472
66.4595
66.4149
66.4004
66.2890
66.1268
66.511
66.338
66.13
65.9160
65.7926
65.6944
65.6275
65.5920
65.5198
65.3642
65.2552
65.2265
65.2224
65.1832
65.713
64.9668
64.9015
64.8597
64.7969
64.6279
64.4758
64.4171
64.4046
64.3840
64.3128
64.2014
64.1027
64.471
64.319
63.9573
63.7907
63.6791
63.6593
63.6434
63.5776
63.4539
63.3517
63.2825
63.2382
63.2130
63.1078
62.9547
62.8628
62.8490
62.8640
62.8314
62.7127
62.6090
62.5580
62.5364
62.4907
62.3326
62.1882
62.1485
62.1424
62.1301
62.867
61.9888
61.8987
61.8426
61.8433
61.8305
61.6816
61.5285
61.4930
61.5058
61.4883
61.4024
61.2839
61.1984
61.1483
61.1239
61.947
60.9723
60.8316
60.7696
60.7778
60.7821
60.7345
60.6246
60.5321
60.4836
60.4664
60.4313
60.2829
60.1158
60.539
60.581
60.582
60.324
59.9334
59.8368
59.7609
59.7363
59.7462
59.6745
59.5031
59.3957
59.3995
59.4148
59.3844
59.2648
59.1464
59.813
59.499
59.407
59.198
58.8892
58.7547
58.7063
58.7279
58.7572
58.7246
58.6090
58.5120
58.4696
58.4682
58.4511
58.3510
58.1866
58.1091
58.1210
58.1366
58.1372
58.874
57.9803
57.9000
57.8763
57.9009
57.9071
57.7707
57.6133
57.5717
57.6104
57.6239
57.5845
57.4675
57.3713
57.3128
57.2882
57.2863
57.2590
57.1220
56.9934
56.9607
56.9905
57.274
57.20
56.8884
56.7961
56.7585
56.7602
56.7506
56.6821
56.5023
56.3732
56.3608
56.3912
56.4011
56.3724
56.2751
56.1874
56.1308
56.1237
56.1502
56.1222
55.9632
55.8315
55.8157
55.8620
55.8653
55.8028
55.6710
55.5873
55.5634
55.5569
55.5596
55.5339
55.3993
55.2738
55.2410
55.2785
55.3246
55.3366
55.2368
55.1333
55.954
55.974
55.1103
55.883
54.9393
54.8029
54.7784
54.8197
54.8396
54.8426
54.7910
54.6998
54.6370
54.6171
54.6482
54.6846
54.5923
54.4324
54.3594
54.4034
54.4530
54.4476
54.3698
54.2523
54.1947
54.1760
54.1700
54.1829
54.1563
54.219
53.9059
53.8835
53.9291
53.9803
53.9839
53.8883
53.7896
53.7485
53.7559
53.7700
53.7556
53.6283
53.4629
53.4038
53.4421
53.4847
53.4914
53.4601
53.3641
53.2865
53.2438
53.2503
53.2909
53.2875
53.1406
53.43
52.9922
53.559
53.902
53.714
52.9714
52.8529
52.8062
52.8090
52.8226
52.8392
52.7994
52.6566
52.5589
52.5606
52.6180
52.6747
52.6946
52.6010
52.4996
52.4693
52.4876
52.5131
52.5212
52.4210
52.2601
52.2013
52.2467
52.2970
52.3216
52.3201
52.2457
52.1685
52.1331
52.1524
52.2085
52.2457
52.1509
51.9890
51.9359
51.9939
52.547
52.658
52.133
51.8959
51.8269
51.8158
51.8278
51.8542
51.8758
51.7899
51.6407
51.5819
51.6280
51.6965
51.7393
51.7214
51.6124
51.5414
51.5358
51.5606
51.5841
51.5768
51.4440
51.2848
51.2392
51.2951
51.3560
51.3801
51.3589
51.2715
51.2056
51.1798
51.1890
51.2319
51.2686
51.1695
51.94
50.9472
51.171
51.969
51.1144
51.650
50.9395
50.8707
50.8710
50.8914
50.9145
50.9367
50.8888
50.7541
50.6840
50.7164
50.7845
50.8459
50.8839
50.8044
50.7031
50.6773
50.7150
50.7592
50.7851
50.7306
50.5687
50.4849
50.5172
50.5912
50.6375
50.6661
50.6314
50.5491
50.5111
50.5236
50.5743
50.6394
50.6445
50.5006
50.3669
50.3782
50.4702
50.5379
50.5466
50.4828
50.3689
50.3194
50.3336
50.3589
50.4054
50.4291
50.3334
50.2085
50.1759
50.2304
50.3060
50.3551
50.3531
50.2583
50.1899
50.1878
50.2199
50.2534
50.2663
50.1754
50.128
49.9412
49.9893
50.632
50.1101
50.1349
50.783
49.9910
49.9597
49.9711
50.37
50.660
50.765
49.9328
49.7998
49.8017
49.8912
49.9612
49.9779
49.9226
49.8065
49.7557
49.7707
49.8026
49.8409
49.8776
49.8086
49.6762
49.6215
49.6773
49.7662
49.8412
49.8815
49.7958
49.7011
49.6893
49.7410
49.7972
49.8295
49.7896
49.6413
49.5474
49.5815
49.6625
49.7244
49.7633
49.7489
49.6759
49.6330
49.6453
49.6967
49.7726
49.8272
49.7168
49.5674
49.5439
49.6404
49.7274
49.7555
49.7362
49.6352
49.5623
49.5585
49.5934
49.6389
49.6814
49.6662
49.5469
49.4665
49.5019
49.5929
49.6678
49.7105
49.6596
49.5588
49.5272
49.5617
49.6150
49.6617
49.6592
49.5177
49.3851
49.3704
49.4480
49.5257
49.5758
49.5784
49.4978
49.4411
49.4366
49.4668
49.5291
49.5951
49.5559
49.4042
49.3170
49.3637
49.4646
49.5357
49.5421
49.4673
49.3734
49.3525
49.3871
49.4320
49.4875
49.5206
49.4308
49.3119
49.2949
49.3722
49.4623
49.5451
49.5736
49.4794
49.4061
49.4276
49.4967
49.5636
49.5960
49.5341
49.3807
49.3255
49.3957
49.4817
49.5395
49.5867
49.5696
49.5078
49.4885
49.5168
49.5799
49.6666
49.6990
49.5716
49.4483
49.4633
49.5691
49.6578
49.6898
49.6557
49.5544
49.5207
49.5389
49.5817
49.6313
49.6850
49.6485
49.5241
49.4694
49.5321
49.6285
49.7103
49.7531
49.6750
49.5954
49.5948
49.6433
49.7003
49.7473
49.7216
49.5684
49.4685
49.4999
49.6026
49.6749
49.7149
49.7089
49.6381
49.5983
49.6048
49.6505
49.7256
49.7910
49.6955
49.5438
49.5170
49.6196
49.7228
49.7714
49.7627
49.6616
49.5971
49.6128
49.6630
49.7150
49.7723
49.7682
49.6477
49.5744
49.6043
49.7004
49.8042
49.8888
49.8457
49.7481
49.7261
49.7877
49.8662
49.9290
49.9337
49.8075
49.7074
49.7325
49.8226
49.9029
49.9718
49.9992
49.9270
49.8755
49.8940
49.9590
50.506
50.1269
50.505
49.9115
49.8838
49.9779
50.821
50.1405
50.1394
50.416
49.9862
50.80
50.561
50.1137
50.1785
50.1743
50.515
49.9827
50.317
50.1265
50.2151
50.2695
50.2088
50.1250
50.1200
50.1743
50.2327
50.2879
50.2794
50.1319
50.295
50.606
50.1623
50.2357
50.2908
50.2876
50.2131
50.1753
50.1954
50.2485
50.3318
50.3917
50.2864
50.1532
50.1462
50.2559
50.3582
50.4056
50.3826
50.2813
50.2355
50.2635
50.3254
50.3899
50.4479
50.4062
50.2810
50.2430
50.3157
50.4219
50.5125
50.5611
50.4889
50.4265
50.4458
50.5222
50.5960
50.6403
50.5852
50.4489
50.4159
50.4973
50.5936
50.6619
50.7169
50.6755
50.6257
50.6270
50.6779
50.7591
50.8483
50.8268
50.6912
50.6332
50.7107
50.8315
50.9030
50.9223
50.8495
50.7836
50.7879
50.8273
50.8855
50.9563
50.9713
50.8561
50.7889
50.8272
50.9270
51.151
51.802
51.291
50.9530
50.9580
51.196
51.881
51.1416
51.1120
50.9704
50.8937
50.9406
51.416
51.1197
51.1733
51.1399
51.763
51.624
51.950
51.1596
51.2494
51.2668
51.1335
51.496
51.1102
51.2270
51.2981
51.3166
51.2418
51.1691
51.1792
51.2266
51.2878
51.3512
51.3613
51.2524
51.1837
51.2389
51.3494
51.4544
51.5301
51.4787
51.4023
51.4032
51.4688
51.5472
51.6043
51.5576
51.4206
51.3864
51.4611
51.5568
51.6303
51.6920
51.6631
51.6118
51.6209
51.6700
51.7599
51.8495
51.8121
51.6805
51.6372
51.7352
51.8485
51.9109
51.9154
51.8263
51.7816
51.8127
51.8688
51.9335
51.9977
51.9414
51.8390
51.8262
51.9132
52.176
52.924
52.995
52.213
51.9876
52.252
52.880
52.1578
52.1834
52.533
51.9439
51.9609
52.559
52.1402
52.2025
52.2064
52.1483
52.1298
52.1508
52.2031
52.2951
52.3190
52.1893
52.998
52.1604
52.2844
52.3579
52.3765
52.2936
52.2313
52.2477
52.2986
52.3604
52.4305
52.4183
52.3155
52.2793
52.3525
52.4595
52.5547
52.5905
52.5106
52.4680
52.5057
52.5805
52.6531
52.6824
52.5804
52.4819
52.5104
52.6116
52.6945
52.7675
52.7765
52.7273
52.7191
52.7576
52.8341
52.9269
52.9368
52.8039
52.7368
52.8139
52.9300
53.59
53.233
52.9369
52.8806
52.9009
52.9532
53.236
53.982
53.480
52.9438
52.9389
53.341
53.1338
53.2118
53.2056
53.1246
53.1092
53.1659
53.2393
53.2916
53.2638
53.1221
53.523
53.1173
53.2201
53.3000
53.3505
53.3044
53.2544
53.2612
53.3043
53.3827
53.4562
53.3799
53.2532
53.2489
53.3584
53.4582
53.4991
53.4481
53.3711
53.3722
53.4240
53.4850
53.5546
53.5714
53.4636
53.4103
53.4659
53.5643
53.6643
53.7115
53.6415
53.5908
53.6249
53.7056
53.7813
53.7962
53.6800
53.5980
53.6415
53.7464
53.8243
53.8980
53.8888
53.8447
53.8516
53.8977
53.9821
54.681
54.127
53.8845
53.8820
53.9954
54.919
54.1467
54.1117
54.345
54.251
54.680
54.1324
54.2101
54.2146
54.1105
54.616
54.1269
54.2212
54.3101
54.3429
54.2651
54.2285
54.2716
54.3378
54.3980
54.3995
54.2699
54.1915
54.2407
54.3302
54.4061
54.4665
54.4232
54.3723
54.3788
54.4269
54.5131
54.5770
54.4746
54.3641
54.3908
54.5066
54.5903
54.6184
54.5443
54.4855
54.5028
54.5523
54.6211
54.6830
54.6319
54.5331
54.5336
54.6261
54.7329
54.8231
54.8031
54.7268
54.7199
54.7783
54.8536
54.9098
54.8432
54.7279
54.7357
54.8297
54.9076
54.9827
54.9914
54.9523
54.9454
54.9849
55.699
55.1599
55.1205
54.9951
54.9784
55.781
55.1773
55.2229
55.1926
55.1273
55.1226
55.1628
55.2252
55.3027
55.2868
55.1772
55.1468
55.2300
55.3278
55.4118
55.4067
55.3301
55.3152
55.3629
55.4277
55.4885
55.4348
55.3050
55.2814
55.3615
55.4511
55.5227
55.5354
55.4815
55.4624
55.4843
55.5441
55.6330
55.6045
55.4729
55.4387
55.5315
55.6261
55.6747
55.6364
55.5620
55.5647
55.6089
55.6720
55.7404
55.7161
55.6148
55.5978
55.6725
55.7650
55.8602
55.8440
55.7705
55.7575
55.8192
55.8950
55.9501
55.8780
55.7684
55.7760
55.8674
55.9563
56.363
56.373
55.9910
55.9835
56.267
56.1150
56.1977
56.1184
56.78
56.277
56.1365
56.2202
56.2561
56.1871
56.1365
56.1500
56.1977
56.2677
56.3178
56.2417
56.1610
56.1951
56.2890
56.3802
56.4262
56.3654
56.3206
56.3506
56.4074
56.4667
56.4565
56.3283
56.2682
56.3298
56.4257
56.5020
56.5283
56.4641
56.4215
56.4348
56.4986
56.5987
56.5983
56.4655
56.4143
56.5030
56.6012
56.6451
56.6084
56.5368
56.5332
56.5745
56.6311
56.6994
56.6632
56.5619
56.5495
56.6307
56.7362
56.8205
56.7804
56.7152
56.7228
56.7826
56.8544
56.8842
56.7735
56.7022
56.7428
56.8343
56.9127
56.9751
56.9420
56.9070
56.9195
56.9794
57.755
57.900
56.9694
56.9227
57.41
57.983
57.1520
57.1303
57.663
57.488
57.843
57.1399
57.2105
57.1839
57.890
57.855
57.1682
57.2559
57.3244
57.2810
57.2231
57.2346
57.2859
57.3428
57.3615
57.2429
57.1626
57.2068
57.3046
57.3810
57.4209
57.3701
57.3395
57.3518
57.4059
57.4861
57.4667
57.3443
57.3095
57.4015
57.4876
57.5296
57.4810
57.4166
57.4206
57.4579
57.5192
57.5841
57.5210
57.4303
57.4468
57.5305
57.6318
57.6888
57.6216
57.5819
57.6074
57.6740
57.7405
57.7095
57.5908
57.5712
57.6488
57.7325
57.8080
57.8201
57.7771
57.7659
57.8057
57.8891
57.9585
57.8726
57.7748
57.8085
57.9073
57.9764
57.9942
57.9284
57.8873
57.9042
57.9514
58.221
58.331
57.9354
57.9024
57.9716
58.656
58.1470
58.1234
58.551
58.483
58.1005
58.1565
58.1826
58.692
57.9714
58.30
58.859
58.1619
58.2069
58.1640
58.1253
58.1295
58.1789
58.2674
58.2525
58.1220
58.871
58.1773
58.2618
58.2991
58.2312
58.1738
58.1860
58.2262
58.2904
58.3350
58.2539
58.1745
58.2099
58.3016
58.4009
58.4297
58.3611
58.3298
58.3693
58.4283
58.4761
58.4057
58.3076
58.3222
58.3977
58.4756
58.5440
58.5243
58.4855
58.4907
58.5448
58.6407
58.6523
58.5265
58.4768
58.5541
58.6496
58.7043
58.6619
58.5962
58.5935
58.6304
58.6866
58.7395
58.6673
58.5893
58.6212
58.7092
58.7920
58.8104
58.7412
58.7130
58.7486
58.8035
58.8563
58.7799
58.6676
58.6678
58.7478
58.8209
58.8759
58.8413
58.7993
58.7942
58.8311
58.9132
58.9252
58.8035
58.7487
58.8199
58.9019
58.9449
58.8966
58.8325
58.8367
58.8700
58.9179
58.9648
58.8957
58.8242
58.8489
58.9372
59.387
59.622
58.9872
58.9612
59.41
59.643
59.1034
59.166
58.9258
58.9526
59.349
59.1090
59.1649
59.1267
59.926
59.1121
59.1738
59.2668
59.2436
59.1175
59.1043
59.1932
59.2698
59.3027
59.2456
59.1927
59.1968
59.2353
59.2982
59.3189
59.2342
59.1950
59.2498
59.3296
59.4049
59.3795
59.3200
59.3118
59.3605
59.4137
59.4210
59.2991
59.2266
59.2688
59.3455
59.4134
59.4305
59.3883
59.3623
59.3769
59.4385
59.5103
59.4346
59.3265
59.3446
59.4356
59.4959
59.4880
59.4087
59.3839
59.4129
59.4604
59.5188
59.4845
59.3906
59.3777
59.4554
59.5537
59.6195
59.5594
59.5042
59.5264
59.5809
59.6330
59.5891
59.4811
59.4659
59.5360
59.6098
59.6787
59.6677
59.6342
59.6349
59.6828
59.7684
59.7756
59.6559
59.6124
59.6880
59.7629
59.8047
59.7529
59.6947
59.6972
59.7307
59.7867
59.8219
59.7335
59.6681
59.7135
59.8039
59.8862
59.8699
59.8056
59.8001
59.8361
59.8864
59.8917
59.7653
59.6800
59.7216
59.8055
59.8774
59.8976
59.8452
59.8233
59.8335
59.8953
59.9586
59.8700
59.7731
59.7999
59.8859
59.9414
59.9254
59.8442
59.8218
59.8460
59.8918
59.9517
59.9049
59.8122
59.8106
59.8829
59.9761
60.259
59.9588
59.9205
59.9478
60.104
60.533
59.9719
59.8737
59.8872
59.9597
60.221
60.820
60.544
60.166
60.231
60.857
60.1777
60.1364
60.146
60.72
60.989
60.1689
60.1841
60.1133
60.713
60.854
60.1224
60.1848
60.1701
60.727
60.537
60.1232
60.2062
60.2637
60.2101
60.1611
60.1721
60.2159
60.2584
60.2142
60.899
60.650
60.1315
60.2011
60.2594
60.2308
60.1856
60.1788
60.2168
60.2972
60.2983
60.1778
60.1328
60.2083
60.2807
60.3141
60.2451
60.1840
60.1931
60.2239
60.2842
60.3019
60.2106
60.1574
60.2122
60.3037
60.3859
60.3521
60.2940
60.2977
60.3441
60.3981
60.3781
60.2593
60.2256
60.2882
60.3589
60.4267
60.4225
60.3811
60.3786
60.4233
60.5132
60.5272
60.4059
60.3558
60.4284
60.5062
60.5468
60.4953
60.4355
60.4286
60.4540
60.5149
60.5423
60.4556
60.4048
60.4522
60.5279
60.5999
60.5737
60.5153
60.5160
60.5536
60.6056
60.5860
60.4612
60.4043
60.4598
60.5292
60.5920
60.5775
60.5348
60.5251
60.5519
60.6222
60.6387
60.5215
60.4658
60.5289
60.6055
60.6368
60.5800
60.5256
60.5354
60.5642
60.6096
60.6264
60.5326
60.4794
60.5241
60.6108
60.6974
60.6714
60.6080
60.6084
60.6527
60.7011
60.6787
60.5651
60.5286
60.5856
60.6592
60.7329
60.7344
60.6913
60.6803
60.7175
60.7971
60.8021
60.6892
60.6441
60.7156
60.7879
60.8239
60.7696
60.7172
60.7147
60.7432
60.8018
60.8118
60.7183
60.6766
60.7267
60.8067
60.8723
60.8309
60.7712
60.7735
60.8183
60.8688
60.8293
60.6941
60.6561
60.7181
60.7902
60.8461
60.8231
60.7797
60.7604
60.7838
60.8589
60.8571
60.7395
60.6995
60.7655
60.8363
60.8591
60.7831
60.7325
60.7442
60.7815
60.8336
60.8249
60.7255
60.6899
60.7477
60.8313
60.9028
60.8583
60.8031
60.8112
60.8583
60.9049
60.8491
60.7446
60.7360
60.8055
60.8672
60.9198
60.8939
60.8564
60.8561
60.9156
61.35
60.9713
60.8493
60.8375
60.9186
60.9838
60.9959
60.9305
60.8958
60.8998
60.9367
60.9969
60.9639
60.8703
60.8536
60.9211
61.81
61.483
60.9832
60.9417
60.9590
61.29
61.419
60.9592
60.8454
60.8464
60.9129
60.9756
61.116
60.9647
60.9306
60.9330
60.9827
61.511
60.9787
60.8672
60.8786
60.9608
61.208
61.29
60.9255
60.8946
60.9200
60.9682
61.133
60.9493
60.8596
60.8710
60.9468
61.329
61.536
60.9805
60.9489
60.9767
61.252
61.518
60.9533
60.8719
60.8998
60.9704
61.398
61.674
61.234
60.9997
61.197
61.904
61.1413
61.411
60.9428
60.9814
61.644
61.1159
61.879
61.197
60.9970
61.182
61.726
61.1157
61.284
60.9545
60.9796
61.509
61.1265
61.1152
61.463
61.316
61.592
61.1044
61.981
60.9714
60.9065
60.9505
61.213
61.830
61.726
61.175
60.9925
61.50
61.777
61.998
60.9840
60.9120
60.9649
61.323
61.641
61.19
60.9385
60.9334
60.9624
61.149
61.331
60.9393
60.8872
60.9289
61.88
61.811
61.460
60.9746
60.9750
61.178
61.629
61.328
60.9174
60.8890
60.9449
61.116
61.772
61.602
61.123
61.73
61.575
61.1405
61.1262
61.1
60.9666
61.358
61.988
61.1240
61.620
61.141
61.193
61.537
61.1090
61.930
60.9935
60.9693
61.293
61.1051
61.1548
61.954
61.460
61.510
61.892
61.1300
61.571
60.9368
60.9232
60.9918
61.600
61.1070
61.695
61.298
61.214
61.633
61.1270
61.740
60.9576
60.9541
61.370
61.952
61.828
60.9971
60.9627
60.9885
61.310
61.789
61.238
60.9380
60.9354
60.9962
61.801
61.1207
61.522
61.129
61.447
61.948
61.1217
61.214
60.9328
60.9624
61.372
61.1035
61.1331
61.874
61.618
61.788
61.1450
61.2051
61.1134
61.179
61.573
61.1366
61.1798
61.1578
61.924
61.752
61.907
61.1340
61.1717
61.902
61.161
61.463
61.1192
61.1863
61.1740
61.1057
61.940
61.1254
61.1689
61.1668
61.414
60.9714
61.166
61.845
61.1461
61.1376
61.832
61.534
61.658
61.1335
61.1630
61.447
60.9678
61.222
61.1002
61.1395
61.818
61.130
61.34
61.352
61.861
61.992
61.2
60.9456
60.9849
61.642
61.1391
61.1069
61.423
61.372
61.775
61.1269
61.938
60.9799
60.9471
61.98
61.752
61.1363
61.1204
61.759
61.737
61.1116
61.1878
61.1694
61.488
61.185
61.915
61.1590
61.1817
61.1172
61.688
61.691
61.973
61.1518
61.1372
61.369
61.80
61.665
61.1395
61.1809
61.1270
61.815
61.934
61.1308
61.1649
61.907
60.9754
60.9555
61.165
61.809
61.1201
61.806
61.455
61.379
61.775
61.1430
61.859
60.9699
60.9703
61.507
61.982
61.860
61.57
60.9697
60.9839
61.261
61.762
61.282
60.9364
60.9341
61.30
61.828
61.1111
61.403
61.1
61.248
61.770
61.1025
61.57
60.9173
60.9422
61.14
61.676
61.1002
61.643
61.348
61.424
61.1120
61.1781
61.843
60.9812
61.103
61.922
61.1417
61.1196
61.442
61.211
61.308
61.794
61.1229
61.435
60.9712
60.9963
61.699
61.1432
61.1326
61.614
61.416
61.699
61.1138
61.1134
60.9823
60.9061
60.9410
61.93
61.689
61.693
61.141
60.9805
60.9892
61.539
61.869
60.9755
60.8935
60.9388
61.141
61.528
60.9986
60.9333
60.9272
60.9512
60.9974
61.151
60.9199
60.8530
60.8818
60.9592
61.403
61.147
60.9411
60.9366
60.9791
61.280
61.56
60.8848
60.8386
60.8967
60.9671
61.247
61.131
60.9628
60.9433
60.9761
61.551
61.614
60.9464
60.8967
60.9573
61.278
61.539
60.9910
60.9367
60.9362
60.9642
61.144
61.141
60.9096
60.8659
60.9183
60.9884
61.425
60.9948
60.9390
60.9398
60.9773
61.176
60.9623
60.8331
60.8018
60.8612
60.9223
60.9658
60.9302
60.8839
60.8686
60.8901
60.9589
60.9372
60.8172
60.7781
60.8419
60.9135
60.9285
60.8446
60.7948
60.8081
60.8402
60.8893
60.8605
60.7550
60.7178
60.7764
60.8609
60.9153
60.8559
60.7993
60.8111
60.8540
60.8979
60.8320
60.7189
60.7124
60.7768
60.8422
60.8952
60.8641
60.8254
60.8255
60.8737
60.9477
60.8978
60.7708
60.7604
60.8391
60.9068
60.9186
60.8464
60.7985
60.8064
60.8438
60.8972
60.8539
60.7521
60.7363
60.7967
60.8763
60.9157
60.8531
60.8078
60.8175
60.8567
60.8902
60.8056
60.6844
60.6734
60.7362
60.8011
60.8439
60.7982
60.7537
60.7479
60.7960
60.8622
60.8015
60.6886
60.6838
60.7540
60.8086
60.7942
60.7124
60.6758
60.6906
60.7268
60.7765
60.7307
60.6281
60.6152
60.6852
60.7706
60.8128
60.7432

END