=~=~=~=~=~=~=~=~=~=~=~= PuTTY log 2025.04.24 08:57:31 =~=~=~=~=~=~=~=~=~=~=~=




Speed (Hz)
60.1208
60.824
60.1317
60.2339
60.3042
60.3141
60.2376
60.1511
60.1370
60.1567
60.1948
60.2115
60.1087
60.232
60.402
60.1119
60.1896
60.1837
60.1084
60.814
60.1162
60.1730
60.1872
60.732
59.9885
60.181
60.817
60.1390
60.1621
60.1100
60.680
60.810
60.1475
60.2131
60.1229
60.193
60.477
60.1321
60.1843
60.1784
60.976
60.640
60.757
60.1202
60.1684
60.1043
60.15
59.9920
60.621
60.1465
60.1762
60.1048
60.645
60.878
60.1330
60.1718
60.857
59.9608
59.9530
60.156
60.811
60.1193
60.682
60.118
59.9991
60.365
60.1168
60.821
59.9588
59.9283
60.1
60.692
60.767
59.9989
59.9463
59.9548
59.9869
60.345
60.190
59.9115
59.8630
59.9105
59.9908
60.679
60.255
59.9585
59.9606
60.125
60.648
60.389
59.9175
59.8776
59.9352
60.26
60.619
60.524
60.18
59.9838
60.149
60.929
60.1142
59.9941
59.9331
59.9947
60.719
60.1197
60.755
60.95
59.9968
60.164
60.710
60.1076
60.129
59.9318
59.9615
60.373
60.1159
60.978
60.310
60.158
60.509
60.1034
60.1180
59.9971
59.9055
59.9382
60.90
60.664
60.750
60.186
59.9832
59.9891
60.372
60.970
60.69
59.8978
59.9294
60.171
60.709
60.472
59.9668
59.9371
59.9605
59.9972
60.446
59.9895
59.8919
59.8801
59.9411
60.293
60.710
60.1
59.9569
59.9859
60.400
60.841
60.77
59.9024
59.9127
59.9818
60.429
60.853
60.465
59.9937
59.9953
60.455
60.1274
60.893
59.9694
59.9575
60.432
60.1153
60.1298
60.624
60.218
60.248
60.543
60.1037
60.845
59.9804
59.9383
59.9970
60.786
60.1371
60.892
60.335
60.436
60.835
60.1336
60.945
59.9653
59.9222
59.9761
60.383
60.901
60.609
60.7
59.9755
59.9988
60.705
60.824
59.9636
59.9018
59.9629
60.419
60.773
60.234
59.9553
59.9477
59.9672
60.58
60.340
59.9385
59.8610
59.8799
59.9579
60.492
60.492
59.9815
59.9602
59.9959
60.510
60.621
59.9518
59.8777
59.9173
59.9816
60.414
60.568
60.61
59.9740
59.9920
60.625
60.1292
60.393
59.9402
59.9684
60.573
60.1151
60.1000
60.235
59.9899
60.57
60.451
60.941
60.313
59.9373
59.9384
60.123
60.885
60.1132
60.463
60.67
60.304
60.835
60.1216
60.306
59.9127
59.9077
59.9717
60.321
60.737
60.229
59.9692
59.9621
60.33
60.777
60.403
59.9222
59.9038
59.9857
60.555
60.654
59.9893
59.9381
59.9468
59.9771
60.251
60.46
59.8979
59.8543
59.9051
59.9969
60.696
60.219
59.9576
59.9645
60.163
60.686
60.400
59.9191
59.8856
59.9444
60.87
60.720
60.555
60.32
59.9849
60.249
60.1100
60.1253
60.12
59.9452
60.223
60.1078
60.1486
60.947
60.274
60.169
60.439
60.962
60.1137
60.135
59.9443
59.9790
60.613
60.1344
60.1172
60.536
60.415
60.764
60.1293
60.1305
60.21
59.9199
59.9565
60.286
60.853
60.809
60.212
59.9902
60.14
60.604
60.1159
60.224
59.9256
59.9531
60.358
60.914
60.691
59.9834
59.9513
59.9681
60.81
60.595
59.9971
59.8979
59.8971
59.9700
60.566
60.861
60.191
59.9803
60.87
60.690
60.1049
60.118
59.9047
59.9238
60.10
60.647
60.1043
60.598
60.151
60.145
60.699
60.1519
60.1044
59.9897
59.9851
60.699
60.1333
60.1488
60.756
60.271
60.317
60.708
60.1340
60.1116
60.8
59.9679
60.231
60.1054
60.1557
60.995
60.384
60.482
60.948
60.1433
60.988
59.9669
59.9239
59.9846
60.508
60.1058
60.795
60.201
59.9938
60.122
60.875
60.969
59.9681
59.9097
59.9682
60.508
60.894
60.285
59.9599
59.9543
59.9842
60.256
60.400
59.9442
59.8753
59.9036
59.9799
60.611
60.418
59.9718
59.9662
60.113
60.623
60.640
59.9485
59.8846
59.9307
60.10
60.680
60.765
60.221
59.9934
60.196
60.945
60.1446
60.355
59.9443
59.9922
60.800
60.1337
60.1126
60.456
60.144
60.276
60.687
60.1167
60.507
59.9561
59.9563
60.321
60.1136
60.1335
60.695
60.387
60.654
60.1077
60.1376
60.394
59.9290
59.9362
60.67
60.685
60.954
60.406
59.9941
59.9911
60.381
60.1107
60.563
59.9314
59.9231
60.79
60.665
60.694
59.9871
59.9451
59.9624
59.9997
60.466
60.185
59.9163
59.8871
59.9400
60.210
60.881
60.358
59.9755
59.9896
60.430
60.877
60.372
59.9187
59.8988
59.9646
60.340
60.934
60.692
60.216
60.56
60.425
60.1271
60.1283
60.66
59.9614
60.350
60.1144
60.1515
60.997
60.386
60.350
60.637
60.1095
60.1155
60.156
59.9575
59.9982
60.759
60.1461
60.1166
60.504
60.400
60.803
60.1330
60.1242
59.9964
59.9305
59.9744
60.395
60.996
60.903
60.281
59.9989
60.102
60.780
60.1183
60.62
59.9189
59.9623
60.458
60.980
60.623
59.9827
59.9598
59.9851
60.278
60.622
59.9846
59.8950
59.9078
59.9834
60.652
60.860
60.92
59.9808
60.121
60.681
60.981
60.40
59.9093
59.9272
59.9995
60.634
60.1027
60.568
60.141
60.195
60.834
60.1593
60.889
59.9780
59.9919
60.806
60.1450
60.1516
60.727
60.317
60.446
60.821
60.1394
60.1000
59.9951
59.9775
60.375
60.1116
60.1539
60.973
60.547
60.752
60.1164
60.1606
60.948
59.9647
59.9405
60.39
60.672
60.1115
60.751
60.249
60.43
60.315
60.1060
60.957
59.9727
59.9324
60.61
60.774
60.1025
60.268
59.9674
59.9697
60.22
60.514
60.499
59.9470
59.8930
59.9386
60.224
60.968
60.609
59.9907
59.9882
60.398
60.999
60.862
59.9614
59.9110
59.9633
60.282
60.951
60.980
60.495
60.268
60.553
60.1315
60.1672
60.495
59.9782
60.405
60.1234
60.1701
60.1314
60.577
60.371
60.579
60.1059
60.1368
60.565
59.9738
59.9989
60.799
60.1575
60.1556
60.842
60.631
60.1018
60.1524
60.1660
60.487
59.9523
59.9753
60.412
60.1009
60.1155
60.604
60.171
60.181
60.724
60.1363
60.593
59.9451
59.9625
60.479
60.1074
60.927
60.40
59.9755
59.9976
60.350
60.825
60.234
59.9225
59.9071
59.9741
60.584
60.1078
60.408
59.9912
60.118
60.677
60.1207
60.519
59.9392
59.9333
59.9979
60.598
60.1120
60.780
60.285
60.222
60.724
60.1548
60.1257
60.31
59.9882
60.722
60.1414
60.1631
60.982
60.447
60.484
60.795
60.1350
60.1272
60.204
59.9756
60.283
60.1047
60.1634
60.1254
60.670
60.656
60.1098
60.1598
60.1241
59.9874
59.9391
60.20
60.723
60.1216
60.968
60.366
60.92
60.276
60.999
60.1262
60.14
59.9281
59.9827
60.663
60.1101
60.576
59.9893
59.9801
60.50
60.521
60.676
59.9709
59.8954
59.9235
59.9996
60.808
60.797
60.62
59.9873
60.314
60.833
60.931
59.9826
59.9141
59.9572
60.268
60.828
60.968
60.526
60.206
60.325
60.981
60.1630
60.705
59.9686
60.20
60.900
60.1466
60.1374
60.598
60.268
60.414
60.867
60.1382
60.736
59.9725
59.9724
60.473
60.1263
60.1529
60.846
60.450
60.632
60.1070
60.1481
60.621
59.9476
59.9479
60.147
60.750
60.1080
60.548
60.79
60.15
60.385
60.1101
60.642
59.9386
59.9218
60.33
60.677
60.831
60.17
59.9519
59.9586
59.9908
60.416
60.258
59.9213
59.8813
59.9328
60.119
60.803
60.332
59.9696
59.9785
60.287
60.749
60.415
59.9229
59.8873
59.9486
60.181
60.815
60.673
60.152
59.9956
60.302
60.1133
60.1296
60.33
59.9471
60.152
60.946
60.1384
60.968
60.257
60.99
60.349
60.893
60.1226
60.292
59.9567
59.9869
60.605
60.1356
60.1156
60.435
60.315
60.683
60.1180
60.1191
59.9927
59.9111
59.9533
60.217
60.775
60.809
60.217
59.9843
59.9938
60.536
60.1079
60.130
59.9082
59.9342
60.181
60.695
60.440
59.9646
59.9422
59.9635
60.35
60.414
59.9713
59.8762
59.8742
59.9472
60.313
60.578
59.9895
59.9490
59.9760
60.306
60.753
59.9934
59.8921
59.8969
59.9618
60.221
60.685
60.299
59.9876
59.9951
60.529
60.1303
60.792
59.9584
59.9580
60.431
60.1077
60.1219
60.453
60.28
60.167
60.512
60.997
60.729
59.9634
59.9346
59.9905
60.733
60.1299
60.746
60.177
60.269
60.684
60.1159
60.696
59.9307
59.8879
59.9492
60.214
60.737
60.410
59.9826
59.9608
59.9833
60.533
60.634
59.9419
59.8825
59.9426
60.181
60.509
59.9932
59.9254
59.9201
59.9448
59.9876
60.74
59.9090
59.8373
59.8657
59.9455
60.297
60.169
59.9465
59.9339
59.9716
60.262
60.317
59.9110
59.8431
59.8870
59.9534
60.184
60.332
59.9808
59.9504
59.9679
60.447
60.1015
60.24
59.9083
59.9416
60.319
60.836
60.671
59.9935
59.9705
59.9846
60.271
60.768
60.84
59.9044
59.9081
59.9819
60.590
60.822
60.158
59.9845
60.85
60.535
60.880
59.9991
59.8820
59.8838
59.9542
60.141
60.482
59.9981
59.9542
59.9412
59.9757
60.462
60.53
59.8821
59.8645
59.9423
60.56
60.196
59.9393
59.8903
59.9036
59.9346
59.9817
59.9560
59.8493
59.8081
59.8616
59.9413
60.97
59.9693
59.9037
59.9089
59.9548
60.23
59.9751
59.8583
59.8240
59.8817
59.9430
60.21
59.9900
59.9350
59.9179
59.9552
60.382
60.617
59.9361
59.8806
59.9490
60.316
60.779
60.300
59.9565
59.9431
59.9669
60.182
60.466
59.9494
59.8763
59.9052
59.9781
60.585
60.528
59.9829
59.9655
59.9991
60.494
60.575
59.9300
59.8438
59.8783
59.9443
60.90
60.240
59.9641
59.9291
59.9282
59.9866
60.502
59.9618
59.8566
59.8805
59.9616
60.149
59.9976
59.9197
59.8942
59.9157
59.9494
59.9917
59.9339
59.8370
59.8242
59.8932
59.9840
60.242
59.9573
59.9141
59.9384
59.9928
60.347
59.9663
59.8559
59.8538
59.9234
59.9884
60.314
59.9912
59.9461
59.9458
59.9999
60.903
60.585
59.9381
59.9187
60.57
60.801
60.981
60.234
59.9686
59.9769
60.144
60.710
60.585
59.9424
59.8976
59.9461
60.279
60.972
60.600
60.49
60.60
60.451
60.943
60.644
59.9337
59.8794
59.9324
59.9994
60.562
60.296
59.9673
59.9388
59.9646
60.339
60.589
59.9397
59.8678
59.9228
60.7
60.400
59.9907
59.9159
59.9076
59.9318
59.9697
59.9964
59.9054
59.8299
59.8529
59.9289
60.129
60.191
59.9441
59.9248
59.9652
60.155
60.307
59.9227
59.8420
59.8717
59.9428
60.110
60.336
59.9890
59.9546
59.9658
60.329
60.1015
60.203
59.9118
59.9331
60.232
60.848
60.788
59.9998
59.9675
59.9800
60.202
60.756
60.240
59.9222
59.9068
59.9731
60.551
60.899
60.247
59.9824
59.9980
60.443
60.842
60.53
59.8825
59.8734
59.9443
60.105
60.547
60.47
59.9480
59.9345
59.9710
60.423
60.183
59.8932
59.8578
59.9346
60.70
60.275
59.9532
59.8952
59.8996
59.9358
59.9791
59.9762
59.8687
59.8148
59.8569
59.9430
60.230
59.9828
59.9166
59.9199
59.9702
60.201
60.27
59.8845
59.8400
59.8947
59.9582
60.232
60.195
59.9645
59.9433
59.9733
60.516
60.853
59.9681
59.8958
59.9610
60.456
60.880
60.503
59.9811
59.9602
59.9841
60.388
60.767
59.9868
59.9047
59.9281
60.32
60.751
60.696
59.9984
59.9781
60.118
60.607
60.781
59.9638
59.8724
59.8914
59.9582
60.203
60.371
59.9830
59.9369
59.9344
59.9793
60.460
59.9682
59.8543
59.8681
59.9586
60.192
60.78
59.9201
59.8803
59.8991
59.9356
59.9857
59.9403
59.8383
59.8169
59.8734
59.9570
60.128
59.9491
59.8927
59.9151
59.9729
60.158
59.9537
59.8389
59.8362
59.9006
59.9602
60.115
59.9772
59.9305
59.9262
59.9791
60.626
60.426
59.9087
59.8763
59.9593
60.379
60.657
60.6
59.9436
59.9425
59.9699
60.228
60.282
59.9230
59.8642
59.9078
59.9821
60.485
60.175
59.9570
59.9591
59.9933
60.382
60.261
59.8944
59.8263
59.8682
59.9397
59.9930
59.9793
59.9217
59.8883
59.8982
59.9607
60.78
59.9011
59.8081
59.8491
59.9360
59.9815
59.9402
59.8584
59.8387
59.8637
59.9070
59.9451
59.8680
59.7792
59.7854
59.8520
59.9328
59.9560
59.8813
59.8522
59.8862
59.9395
59.9708
59.8750
59.7790
59.7948
59.8638
59.9278
59.9664
59.9213
59.8818
59.8820
59.9400
60.200
59.9604
59.8443
59.8459
59.9355
60.39
60.153
59.9413
59.8990
59.9079
59.9421
59.9965
59.9636
59.8575
59.8241
59.8786
59.9588
60.176
59.9645
59.9086
59.9202
59.9683
60.149
59.9668
59.8325
59.7928
59.8526
59.9258
59.9778
59.9479
59.8926
59.8709
59.8917
59.9577
59.9688
59.8474
59.7848
59.8505
59.9296
59.9606
59.9030
59.8368
59.8310
59.8568
59.9027
59.9203
59.8202
59.7440
59.7725
59.8500
59.9366
59.9333
59.8660
59.8468
59.8871
59.9409
59.9579
59.8468
59.7697
59.8048
59.8732
59.9362
59.9589
59.9162
59.8881
59.9014
59.9675
60.327
59.9405
59.8396
59.8751
59.9622
60.158
60.11
59.9270
59.8984
59.9131
59.9555
60.107
59.9531
59.8476
59.8394
59.9076
59.9870
60.162
59.9558
59.9221
59.9507
59.9953
60.352
59.9492
59.8299
59.8216
59.8842
59.9446
59.9822
59.9353
59.8830
59.8663
59.9020
59.9802
59.9550
59.8341
59.8056
59.8857
59.9571
59.9687
59.8936
59.8459
59.8530
59.8841
59.9301
59.9204
59.8140
59.7638
59.8065
59.8875
59.9633
59.9301
59.8677
59.8692
59.9230
59.9788
59.9620
59.8393
59.7917
59.8479
59.9131
59.9737
59.9670
59.9088
59.8835
59.9123
59.9932
60.293
59.9177
59.8490
59.9116
59.9984
60.468
60.75
59.9356
59.9181
59.9422
59.9873
60.230
59.9367
59.8552
59.8797
59.9509
60.278
60.281
59.9601
59.9351
59.9706
60.231
60.474
59.9353
59.8348
59.8572
59.9259
59.9816
60.37
59.9437
59.9015
59.9046
59.9589
60.185
59.9489
59.8347
59.8403
59.9294
59.9923
59.9895
59.9077
59.8665
59.8801
59.9140
59.9603
59.9212
59.8157
59.7862
59.8464
59.9316
59.9921
59.9402
59.8915
59.9107
59.9587
60.103
59.9542
59.8399
59.8287
59.8966
59.9585
60.119
59.9843
59.9352
59.9254
59.9657
60.522
60.438
59.9226
59.8895
59.9649
60.411
60.732
60.98
59.9470
59.9408
59.9672
60.258
60.425
59.9450
59.8824
59.9177
59.9972
60.725
60.433
59.9798
59.9770
60.156
60.632
60.460
59.9193
59.8517
59.8968
59.9625
60.223
60.118
59.9505
59.9187
59.9388
60.22
60.474
59.9407
59.8503
59.8954
59.9788
60.227
59.9882
59.9077
59.8885
59.9158
59.9533
59.9921
59.9187
59.8318
59.8348
59.9084
59.9951
60.149
59.9413
59.9074
59.9456
60.16
60.315
59.9324
59.8415
59.8597
59.9303
59.9972
60.364
59.9934
59.9594
59.9607
60.190
60.1032
60.377
59.9169
59.9233
60.85
60.744
60.898
60.160
59.9690
59.9741
60.129
60.678
60.342
59.9325
59.9076
59.9696
60.509
60.979
60.369
59.9900
60.116
60.481
60.892
60.313
59.9047
59.8690
59.9318
60.39
60.576
60.179
59.9590
59.9370
59.9619
60.352
60.385
59.9158
59.8671
59.9333
60.82
60.367
59.9708
59.9035
59.9047
59.9332
59.9778
59.9901
59.8805
59.8105
59.8476
59.9324
60.185
59.9980
59.9285
59.9199
59.9653
60.229
60.185
59.9021
59.8429
59.8898
59.9563
60.133
60.225
59.9706
59.9372
59.9595
60.372
60.859
59.9891
59.9056
59.9542
60.457
60.990
60.700
59.9925
59.9694
59.9853
60.311
60.818
60.87
59.9124
59.9227
59.9964
60.757
60.903
60.223
59.9945
60.224
60.741
60.1006
59.9987
59.8918
59.9017
59.9653
60.252
60.563
60.53
59.9640
59.9591
60.29
60.752
60.188
59.8980
59.8897
59.9705
60.351
60.439
59.9593
59.9145
59.9257
59.9589
60.67
59.9741
59.8678
59.8409
59.8967
59.9796
60.409
59.9895
59.9353
59.9472
60.10
60.433
59.9960
59.8790
59.8561
59.9224
59.9896
60.545
60.265
59.9728
59.9645
60.86
60.910
60.894
59.9640
59.9205
59.9924
60.751
60.1122
60.536
59.9840
59.9718
60.29
60.600
60.756
59.9765
59.9152
59.9567
60.342
60.1037
60.737
60.70
59.9985
60.398
60.899
60.871
59.9625
59.8839
59.9224
59.9893
60.480
60.507
59.9884
59.9518
59.9631
60.240
60.735
59.9703
59.8776
59.9166
60.16
60.503
60.171
59.9341
59.9060
59.9249
59.9681
60.92
59.9360
59.8458
59.8447
59.9150
60.49
60.360
59.9643
59.9309
59.9613
60.178
60.483
59.9553
59.8552
59.8722
59.9418
60.54
60.484
59.9956
59.9523
59.9583
60.182
60.991
60.475
59.9347
59.9359
60.260
60.894
60.985
60.268
59.9839
59.9919
60.207
60.761
60.476
59.9432
59.9186
59.9784
60.524
60.987
60.476
59.9988
60.94
60.597
60.1122
60.566
59.9234
59.8867
59.9479
60.117
60.643
60.366
59.9795
59.9574
59.9807
60.531
60.610
59.9456
59.8881
59.9485
60.205
60.569
59.9982
59.9271
59.9182
59.9481
60.56
60.209
59.9220
59.8519
59.8851
59.9716
60.543
60.349
59.9680
59.9602
60.33
60.620
60.652
59.9417
59.8771
59.9250
59.9971
60.592
60.708
60.261
59.9995
60.174
60.858
60.1388
60.368
59.9460
59.9906
60.829
60.1345
60.1066
60.292
60.108
60.306
60.764
60.1245
60.464
59.9539
59.9683
60.452
60.1243
60.1354
60.691
60.442
60.666
60.1119
60.1397
60.347
59.9259
59.9347
60.48
60.641
60.965
60.500
60.62
59.9960
60.343
60.1091
60.583
59.9376
59.9269
60.82
60.712
60.718
59.9837
59.9395
59.9550
59.9926
60.468
60.145
59.9042
59.8737
59.9263
60.105
60.713
60.233
59.9690
59.9823
60.319
60.824
60.372
59.9199
59.8940
59.9527
60.151
60.707
60.472
59.9940
59.9852
60.312
60.1223
60.1220
59.9957
59.9551
60.307
60.1010
60.1339
60.739
60.119
60.57
60.331
60.859
60.950
59.9902
59.9315
59.9779
60.601
60.1344
60.997
60.275
60.244
60.600
60.1100
60.1049
59.9736
59.8998
59.9404
60.125
60.694
60.591
60.8
59.9697
59.9809
60.409
60.940
59.9956
59.9014
59.9395
60.219
60.646
60.234
59.9445
59.9259
59.9506
59.9894
60.268
59.9528
59.8683
59.8723
59.9412
60.309
60.658
59.9933
59.9599
59.9876
60.407
60.754
59.9818
59.8819
59.8949
59.9614
60.250
60.654
60.228
59.9816
59.9879
60.469
60.1281
60.686
59.9581
59.9657
60.541
60.1177
60.1193
60.423
59.9991
60.57
60.410
60.984
60.579
59.9489
59.9335
60.25
60.801
60.1280
60.667
60.195
60.367
60.732
60.1213
60.656
59.9316
59.8993
59.9584
60.219
60.713
60.318
59.9804
59.9604
59.9893
60.708
60.679
59.9485
59.8990
59.9681
60.449
60.713
59.9951
59.9305
59.9288
59.9616
60.61
60.102
59.9084
59.8457
59.8785
59.9614
60.478
60.295
59.9555
59.9461
59.9901
60.500
60.475
59.9326
59.8652
59.9100
59.9731
60.344
60.426
59.9942
59.9727
59.9974
60.701
60.1189
60.159
59.9326
59.9816
60.662
60.1181
60.918
60.121
59.9864
60.9
60.426
60.892
60.69
59.9220
59.9401
60.130
60.924
60.992
60.277
60.9
60.339
60.862
60.1194
60.129
59.8984
59.9077
59.9777
60.472
60.683
60.94
59.9620
59.9586
60.91
60.848
60.275
59.9051
59.9048
59.9902
60.496
60.492
59.9616
59.9219
59.9377
59.9682
60.120
59.9807
59.8736
59.8510
59.9125
60.44
60.652
60.46
59.9517
59.9663
60.167
60.614
60.149
59.8957
59.8716
59.9388
60.15
60.575
60.298
59.9859
59.9793
60.248
60.1098
60.1096
59.9858
59.9481
60.205
60.965
60.1358
60.750
60.60
59.9984
60.313
60.849
60.923
59.9909
59.9288
59.9752
60.532
60.1261
60.1034
60.418
60.363
60.751
60.1232
60.1095
59.9750
59.8971
59.9417
60.162
60.772
60.624
60.14
59.9764
59.9906
60.584
60.1065
59.9997
59.9069
59.9438
60.295
60.789
60.350
59.9518
59.9306
59.9592
60.12
60.358
59.9493
59.8550
59.8743
59.9584
60.416
60.619
59.9938
59.9644
59.9945
60.478
60.804
59.9810
59.8890
59.9063
59.9757
60.389
60.724
60.293
59.9868
59.9973
60.576
60.1347
60.712
59.9659
59.9794
60.712
60.1312
60.1302
60.506
60.91
60.125
60.465
60.977
60.628
59.9594
59.9398
60.39
60.878
60.1336
60.767
60.320
60.527
60.986
60.1450
60.832
59.9537
59.9284
59.9905
60.468
60.911
60.457
59.9841
59.9730
60.128
60.901
60.826
59.9608
59.9175
59.9835
60.581
60.856
60.161
59.9574
59.9627
59.9921
60.396
60.389
59.9333
59.8756
59.9185
60.37
60.796
60.507
59.9842
59.9804
60.270
60.825
60.758
59.9600
59.9059
59.9567
60.233
60.748
60.782
60.306
60.57
60.324
60.1164
60.1586
60.464
59.9734
60.333
60.1187
60.1626
60.1314
60.593
60.344
60.507
60.949
60.1397
60.553
59.9684
59.9923
60.687
60.1430
60.1431
60.762
60.537
60.878
60.1414
60.1688
60.563
59.9520
59.9648
60.393
60.1058
60.1220
60.600
60.127
60.156
60.659
60.1322
60.605
59.9461
59.9542
60.426
60.1016
60.924
60.136
59.9807
59.9872
60.212
60.704
60.228
59.9145
59.8987
59.9697
60.531
60.1037
60.421
59.9913
60.98
60.683
60.1167
60.516
59.9386
59.9315
60.20
60.630
60.1090
60.686
60.199
60.167
60.686
60.1505
60.1280
60.72
59.9871
60.761
60.1524
60.1741
60.998
60.459
60.455
60.720
60.1267
60.1170
60.86
59.9624
60.170
60.1012
60.1661
60.1217
60.619
60.620
60.1066
60.1553
60.1311
59.9922
59.9352
59.9860
60.547
60.1106
60.874
60.262
60.5
60.224
60.920
60.1235
60.48
59.9266
59.9802
60.624
60.1024
60.528
59.9810
59.9677
59.9926
60.402
60.727
59.9797
59.8902
59.9054
59.9904
60.773
60.835
60.91
59.9865
60.295
60.872
60.1069
59.9951
59.9124
59.9401
60.106
60.766
60.998
60.497
60.155
60.349
60.1079
60.1739
60.842
59.9876
60.203
60.1089
60.1650
60.1527
60.769
60.455
60.514
60.896
60.1488
60.917
59.9932
59.9835
60.532
60.1327
60.1611
60.975
60.677
60.887
60.1345
60.1737
60.875
59.9682
59.9635
60.315
60.931
60.1274
60.763
60.262
60.182
60.603
60.1313
60.982
59.9793
59.9578
60.305
60.970
60.1079
60.276
59.9804
59.9879
60.232
60.686
60.509
59.9425
59.9030
59.9588
60.407
60.1106
60.689
60.43
60.83
60.608
60.1157
60.814
59.9588
59.9243
59.9807
60.517
60.1163
60.992
60.434
60.232
60.549
60.1368
60.1609
60.470
59.9948
60.644
60.1459
60.1798
60.1317
60.676
60.538
60.746
60.1228
60.1464
60.529
59.9851
60.112
60.891
60.1697
60.1595
60.916
60.802
60.1168
60.1683
60.1652
60.388
59.9599
59.9903
60.556
60.1210
60.1205
60.571
60.190
60.302
60.969
60.1539
60.580
59.9552
59.9818
60.644
60.1170
60.843
59.9998
59.9778
60.24
60.470
60.878
60.95
59.9092
59.9123
59.9902
60.761
60.1077
60.395
60.5
60.371
60.982
60.1268
60.266
59.9223
59.9358
60.57
60.731
60.1149
60.719
60.258
60.306
60.895
60.1711
60.1180
59.9991
59.9976
60.861
60.1512
60.1572
60.827
60.388
60.445
60.797
60.1353
60.1042
59.9924
59.9660
60.220
60.1037
60.1598
60.1034
60.566
60.726
60.1144
60.1616
60.1029
59.9740
59.9433
60.23
60.586
60.1095
60.733
60.158
59.9973
60.229
60.968
60.993
59.9754
59.9266
59.9984
60.721
60.1000
60.294
59.9682
59.9648
59.9904
60.349
60.512
59.9419
59.8793
59.9206
59.9998
60.861
60.689
60.13
59.9927
60.393
60.918
60.869
59.9672
59.9049
59.9505
60.133
60.770
60.894
60.393
60.130
60.391
60.1162
60.1639
60.577
59.9808
60.276
60.1137
60.1625
60.1359
60.652
60.374
60.525
60.937
60.1326
60.528
59.9706
59.9828
60.590
60.1443
60.1521
60.854
60.627
60.914
60.1404
60.1645
60.534
59.9433
59.9551
60.242
60.896
60.1149
60.689
60.222
60.122
60.542
60.1304
60.731
59.9582
59.9609
60.414
60.1025
60.982
60.120
59.9728
59.9929
60.239
60.718
60.294
59.9274
59.9059
59.9631
60.499
60.1078
60.534
60.89
60.251
60.752
60.1219
60.640
59.9499
59.9380
60.52
60.636
60.1147
60.825
60.291
60.226
60.758
60.1692
60.1592
60.336
60.37
60.829
60.1603
60.1904
60.1238
60.670
60.599
60.852
60.1395
60.1437
60.375
59.9814
60.275
60.1131
60.1840
60.1490
60.885
60.912
60.1315
60.1793
60.1556
60.239
59.9604
60.41
60.741
60.1333
60.1155
60.511
60.269
60.419
60.1072
60.1412
60.307
59.9515
60.10
60.836
60.1244
60.765
60.7
59.9853
60.97
60.488
60.781
59.9914
59.9091
59.9225
59.9945
60.822
60.905
60.215
60.6
60.394
60.947
60.1169
60.98
59.9266
59.9540
60.192
60.821
60.1108
60.624
60.275
60.398
60.1038
60.1654
60.820
59.9816
60.131
60.1031
60.1616
60.1559
60.826
60.411
60.422
60.887
60.1455
60.895
59.9879
59.9803
60.437
60.1257
60.1641
60.1017
60.641
60.867
60.1303
60.1667
60.912
59.9669
59.9508
60.139
60.803
60.1223
60.775
60.252
60.73
60.482
60.1238
60.942
59.9706
59.9460
60.258
60.898
60.1047
60.237
59.9668
59.9761
60.69
60.581
60.429
59.9361
59.8892
59.9448
60.285
60.1057
60.637
59.9974
60.60
60.577
60.1067
60.760
59.9535
59.9161
59.9775
60.405
60.1065
60.932
60.322
60.126
60.548
60.1480
60.1726
60.476
59.9852
60.493
60.1341
60.1698
60.1208
60.542
60.370
60.606
60.1154
60.1473
60.542
59.9762
60.130
60.924
60.1679
60.1564
60.946
60.800
60.1102
60.1596
60.1652
60.420
59.9544
59.9781
60.472
60.1138
60.1188
60.607
60.285
60.286
60.895
60.1502
60.622
59.9611
59.9872
60.693
60.1167
60.973
60.124
59.9789
60.23
60.433
60.924
60.219
59.9231
59.9194
59.9854
60.692
60.1084
60.450
60.128
60.388
60.957
60.1328
60.489
59.9406
59.9465
60.118
60.750
60.1182
60.817
60.394
60.379
60.911
60.1740
60.1304
60.114
60.77
60.968
60.1618
60.1715
60.989
60.477
60.496
60.779
60.1381
60.1162
60.108
59.9786
60.389
60.1207
60.1729
60.1179
60.676
60.794
60.1268
60.1708
60.1208
59.9847
59.9475
60.60
60.702
60.1185
60.841
60.299
60.145
60.436
60.1133
60.1166
59.9939
59.9406
60.72
60.832
60.1115
60.441
59.9778
59.9750
59.9990
60.422
60.517
59.9592
59.8935
59.9221
60.58
60.950
60.814
60.134
60.36
60.526
60.1064
60.1018
59.9786
59.9156
59.9604
60.293
60.867
60.910
60.388
60.129
60.382
60.1204
60.1731
60.714
59.9881
60.422
60.1264
60.1749
60.1455
60.662
60.410
60.581
60.993
60.1419
60.663
59.9789
59.9865
60.604
60.1416
60.1629
60.969
60.721
60.1048
60.1548
60.1790
60.715
59.9564
59.9647
60.324
60.935
60.1213
60.716
60.233
60.149
60.653
60.1407
60.828
59.9716
59.9691
60.500
60.1139
60.1103
60.227
59.9779
59.9916
60.258
60.713
60.319
59.9296
59.9035
59.9631
60.548
60.1154
60.609
60.143
60.337
60.812
60.1231
60.627
59.9464
59.9311
59.9958
60.557
60.1077
60.843
60.443
60.329
60.814
60.1681
60.1582
60.358
60.50
60.891
60.1609
60.1829
60.1177
60.591
60.520
60.767
60.1312
60.1339
60.306
59.9764
60.303
60.1136
60.1840
60.1469
60.813
60.795
60.1201
60.1667
60.1529
60.170
59.9459
59.9858
60.561
60.1221
60.1094
60.486
60.196
60.310
60.983
60.1397
60.316
59.9558
60.81
60.876
60.1261
60.723
59.9963
59.9804
60.55
60.445
60.755
59.9879
59.9049
59.9269
60.73
60.985
60.1080
60.356
60.47
60.448
60.1020
60.1299
60.260
59.9352
59.9575
60.239
60.839
60.1110
60.675
60.335
60.455
60.1125
60.1840
60.1082
60.49
60.296
60.1211
60.1822
60.1715
60.930
60.569
60.695
60.1011
60.1526
60.1002
60.34
59.9959
60.585
60.1425
60.1822
60.1217
60.846
60.1056
60.1447
60.1863
60.1076
59.9758
59.9634
60.306
60.894
60.1372
60.909
60.384
60.259
60.621
60.1381
60.1133
59.9938
59.9613
60.336
60.925
60.1070
60.356
59.9846
59.9882
60.186
60.662
60.491
59.9431
59.8973
59.9487
60.385
60.1122
60.713
60.141
60.224
60.736
60.1226
60.848
59.9607
59.9229
59.9770
60.373
60.965
60.854
60.402
60.261
60.623
60.1416
60.1646
60.456
59.9882
60.540
60.1297
60.1694
60.1278
60.596
60.423
60.623
60.1119
60.1348
60.430
59.9670
59.9972
60.786
60.1557
60.1507
60.845
60.641
60.974
60.1499
60.1550
60.256
59.9395
59.9749
60.408
60.944
60.1000
60.385
60.23
60.113
60.716
60.1303
60.365
59.9314
59.9590
60.425
60.920
60.661
59.9790
59.9555
59.9723
60.64
60.509
59.9838
59.8775
59.8712
59.9513
60.408
60.849
60.137
59.9667
59.9926
60.469
60.836
60.8
59.8917
59.9013
59.9709
60.315
60.683
60.283
59.9857
59.9859
60.409
60.1255
60.875
59.9671
59.9571
60.411
60.1084
60.1256
60.572
60.49
60.21
60.355
60.889
60.808
59.9715
59.9278
59.9876
60.694
60.1250
60.795
60.274
60.271
60.674
60.1178
60.830
59.9522
59.8990
59.9476
60.183
60.730
60.385
59.9837
59.9659
59.9896
60.629
60.756
59.9555
59.8915
59.9556
60.390
60.709
60.78
59.9358
59.9307
59.9563
59.9954
60.149
59.9194
59.8439
59.8752
59.9571
60.414
60.378
59.9708
59.9521
59.9878
60.396
60.491
59.9333
59.8629
59.9055
59.9757
60.326
60.424
59.9907
59.9626
59.9827
60.581
60.1240
60.274
59.9314
59.9731
60.673
60.1146
60.932
60.175
59.9892
59.9988
60.383
60.899
60.244
59.9262
59.9253
59.9990
60.819
60.1132
60.500
60.112
60.385
60.838
60.1229
60.338
59.9083
59.9070
59.9683
60.289
60.675
60.208
59.9709
59.9610
60.0
60.822
60.426
59.9178
59.9014
59.9861
60.521
60.565
59.9708
59.9201
59.9342
59.9686
60.121
59.9917
59.8874
59.8501
59.9074
59.9926
60.672
60.217
59.9568
59.9670
60.189
60.681
60.285
59.9011
59.8724
59.9353
59.9994
60.584
60.442
59.9931
59.9742
60.124
60.999
60.1145
59.9951
59.9441
60.134
60.953
60.1377
60.873
60.218
60.83
60.344
60.813
60.1039
60.51
59.9314
59.9627
60.490
60.1292
60.1162
60.473
60.341
60.710
60.1234
60.1264
59.9930
59.9083
59.9478
60.206
60.752
60.783
60.202
59.9870
59.9883
60.479
60.1092
60.198
59.9232
59.9520
60.354
60.821
60.584
59.9771
59.9530
59.9753
60.153
60.603
59.9854
59.8900
59.8865
59.9596
60.489
60.833
60.166
59.9794
60.29
60.557
60.957
60.126
59.9074
59.9217
59.9881
60.483
60.856
60.530
60.139
60.173
60.715
60.1523
60.1041
59.9900
59.9909
60.794
60.1431
60.1453
60.705
60.321
60.377
60.641
60.1184
60.912
59.9903
59.9627
60.295
60.1114
60.1688
60.1145
60.606
60.749
60.1199
60.1663
60.1138
59.9776
59.9395
60.0
60.666
60.1221
60.843
60.293
60.115
60.318
60.1032
60.1126
59.9932
59.9362
60.18
60.794
60.1070
60.337
59.9696
59.9649
59.9964
60.465
60.588
59.9587
59.8967
59.9321
60.116
60.987
60.829
60.122
60.60
60.491
60.1032
60.1045
59.9850
59.9193
59.9549
60.240
60.912
60.971
60.481
60.225
60.460
60.1227
60.1728
60.725
59.9901
60.392
60.1282
60.1727
60.1428
60.707
60.445
60.589
60.1079
60.1535
60.777
59.9827
59.9947
60.688
60.1540
60.1680
60.1016
60.784
60.1090
60.1529
60.1785
60.716
59.9600
59.9681
60.366
60.1029
60.1348
60.777
60.281
60.266
60.792
60.1472
60.874
59.9727
59.9798
60.611
60.1195
60.1134
60.309
59.9952
60.134
60.418
60.869
60.456
59.9438
59.9164
59.9739
60.624
60.1243
60.598
60.93
60.272
60.768
60.1294
60.809
59.9682
59.9499
60.124
60.717
60.1242
60.883
60.397
60.337
60.838
60.1760
60.1619
60.352
60.42
60.882
60.1621
60.1914
60.1286
60.684
60.609
60.879
60.1388
60.1347
60.321
59.9815
60.323
60.1147
60.1881
60.1533
60.913
60.878
60.1238
60.1763
60.1569
60.253
59.9659
60.171
60.863
60.1432
60.1158
60.508
60.250
60.407
60.1128
60.1460
60.298
59.9502
60.78
60.940
60.1359
60.888
60.116
60.2
60.220
60.650
60.954
60.64
59.9220
59.9361
60.158
60.1111
60.1231
60.494
60.232
60.639
60.1220
60.1463
60.393
59.9456
59.9697
60.378
60.1043
60.1356
60.905
60.523
60.616
60.1327
60.2095
60.1301
60.287
60.528
60.1461
60.2024
60.1922
60.1104
60.748
60.879
60.1303
60.1825
60.1180
60.179
60.106
60.787
60.1645
60.1985
60.1326
60.950
60.1159
60.1664
60.2041
60.1193
59.9988
59.9918
60.548
60.1115
60.1494
60.1012
60.557
60.499
60.908
60.1598
60.1225
60.18
59.9779
60.523
60.1220
60.1395
60.581
60.17
60.97
60.391
60.854
60.701
59.9606
59.9155
59.9605
60.460
60.1262
60.860
60.320
60.316
60.779
60.1309
60.947
59.9688
59.9366
59.9964
60.609
60.1139
60.949
60.452
60.305
60.667
60.1549
60.1714
60.550
60.56
60.741
60.1515
60.1953
60.1425
60.727
60.550
60.794
60.1310
60.1488
60.500
59.9793
60.91
60.908
60.1669
60.1532
60.891
60.770
60.1131
60.1653
60.1705
60.435
59.9564
59.9883
60.625
60.1269
60.1285
60.711
60.359
60.407
60.992
60.1533
60.566
59.9590
59.9879
60.745
60.1237
60.932
60.146
59.9918
60.150
60.560
60.951
60.223
59.9246
59.9291
60.29
60.863
60.1202
60.545
60.188
60.585
60.1159
60.1484
60.532
59.9490
59.9601
60.294
60.933
60.1324
60.902
60.455
60.504
60.1135
60.1973
60.1410
60.258
60.304
60.1165
60.1803
60.1918
60.1107
60.660
60.762
60.1055
60.1556
60.1258
60.217
59.9946
60.578
60.1353
60.1906
60.1394
60.897
60.1052
60.1476
60.1953
60.1364
60.16
59.9700
60.353
60.965
60.1441
60.1010
60.453
60.241
60.545
60.1355
60.1355
60.124
59.9655
60.343
60.1047
60.1281
60.581
59.9987
59.9986
60.255
60.688
60.700
59.9690
59.9089
59.9431
60.282
60.1170
60.966
60.277
60.160
60.608
60.1198
60.1096
59.9874
59.9279
59.9783
60.459
60.1111
60.1134
60.617
60.352
60.591
60.1405
60.1814
60.731
59.9999
60.575
60.1433
60.1915
60.1588
60.878
60.688
60.808
60.1225
60.1618
60.806
59.9942
60.126
60.919
60.1716
60.1785
60.1125
60.923
60.1188
60.1654
60.1910
60.723
59.9696
59.9870
60.595
60.1170
60.1404
60.861
60.375
60.374
60.929
60.1612
60.905
59.9856
60.7
60.770
60.1342
60.1256
60.397
60.43
60.210
60.488
60.977
60.550
59.9531
59.9347
59.9993
60.908
60.1453
60.843
60.327
60.492
60.1034
60.1476
60.791
59.9646
59.9545
60.221
60.849
60.1403
60.1106
60.660
60.560
60.993
60.1930
60.1683
60.457
60.291
60.1127
60.1777
60.1964
60.1280
60.703
60.679
60.999
60.1614
60.1530
60.403
59.9920
60.461
60.1302
60.2036
60.1614
60.1056
60.1114
60.1471
60.1877
60.1539
60.179
59.9628
60.173
60.812
60.1364
60.1169
60.602
60.377
60.595
60.1253
60.1506
60.364
59.9637
60.196
60.994
60.1404
60.798
60.44
59.9923
60.140
60.599
60.851
59.9901
59.9122
59.9388
60.236
60.1177
60.1141
60.406
60.236
60.662
60.1179
60.1233
60.53
59.9282
59.9679
60.334
60.935
60.1169
60.710
60.392
60.629
60.1367
60.1960
60.1022
60.93
60.517
60.1422
60.1940
60.1706
60.923
60.665
60.792
60.1193
60.1621
60.922
59.9950
60.57
60.904
60.1713
60.1866
60.1157
60.866
60.1094
60.1524
60.1895
60.956
59.9783
59.9757
60.388
60.985
60.1334
60.854
60.351
60.229
60.610
60.1400
60.931
59.9735
59.9603
60.384
60.985
60.995
60.116
59.9699
59.9827
60.159
60.571
60.325
59.9247
59.8896
59.9441
60.298
60.1004
60.524
59.9971
60.49
60.535
60.1041
60.622
59.9429
59.9169
59.9744
60.385
60.963
60.788
60.285
60.136
60.512
60.1334
60.1369
60.172
59.9706
60.426
60.1198
60.1516
60.994
60.438
60.332
60.543
60.983
60.1145
60.140
59.9468
59.9904
60.717
60.1492
60.1312
60.680
60.596
60.957
60.1458
60.1429
60.81
59.9283
59.9647
60.308
60.928
60.865
60.274
59.9954
60.74
60.683
60.1202
60.228
59.9249
59.9619
60.395
60.843
60.463
59.9593
59.9416
59.9692
60.107
60.515
59.9735
59.8736
59.8789
59.9529
60.470
60.765
59.9986
59.9599
59.9901
60.503
60.855
59.9879
59.8851
59.9013
59.9708
60.282
60.635
60.198
59.9748
59.9787
60.433
60.1278
60.747
59.9558
59.9568
60.446
60.1059
60.1150
60.349
59.9941
59.9973
60.279
60.843
60.537
59.9431
59.9080
59.9758
60.662
60.1234
60.675
60.134
60.257
60.669
60.1092
60.542
59.9152
59.8775
59.9391
59.9972
60.455
60.150
59.9582
59.9412
59.9693
60.486
60.473
59.9242
59.8708
59.9353
60.118
60.412
59.9704
59.8972
59.8914
59.9196
59.9677
59.9774
59.8791
59.8130
59.8419
59.9233
60.176
60.91
59.9404
59.9219
59.9685
60.240
60.269
59.9034
59.8308
59.8720
59.9402
59.9965
60.76
59.9584
59.9324
59.9525
60.353
60.955
59.9982
59.9070
59.9478
60.369
60.874
60.598
59.9841
59.9526
59.9634
60.37
60.556
59.9884
59.8925
59.9022
59.9868
60.667
60.845
60.174
59.9851
60.105
60.623
60.936
59.9907
59.8734
59.8796
59.9513
60.105
60.374
59.9834
59.9397
59.9361
59.9838
60.586
60.119
59.8934
59.8809
59.9607
60.265
60.312
59.9488
59.9001
59.9034
59.9299
59.9814
59.9606
59.8560
59.8292
59.8893
59.9706
60.380
59.9932
59.9359
59.9409
59.9921
60.441
60.12
59.8737
59.8423
59.9050
59.9685
60.294
60.126
59.9638
59.9472
59.9862
60.739
60.889
59.9641
59.9098
59.9801
60.546
60.908
60.382
59.9677
59.9542
59.9771
60.294
60.565
59.9598
59.8855
59.9242
60.58
60.865
60.698
60.62
59.9887
60.221
60.721
60.809
59.9534
59.8616
59.8934
59.9600
60.200
60.204
59.9676
59.9342
59.9357
59.9942
60.513
59.9580
59.8626
59.8930
59.9688
60.171
59.9925
59.9023
59.8691
59.8996
59.9412
59.9848
59.9213
59.8216
59.8165
59.8877
59.9756
60.93
59.9369
59.9028
59.9322
59.9865
60.228
59.9354
59.8312
59.8302
59.8922
59.9516
60.2
59.9665
59.9284
59.9286
59.9794
60.634
60.286
59.9079
59.8982
59.9836
60.457
60.616
59.9831
59.9341
59.9367
59.9644
60.186
60.93
59.9030
59.8606
59.9218
60.44
60.669
60.217
59.9693
59.9754
60.98
60.561
60.179
59.8840
59.8316
59.8826
59.9469
60.65
59.9839
59.9269
59.9070
59.9308
60.14
60.306
59.9127
59.8443
59.8987
59.9757
60.130
59.9543
59.8724
59.8613
59.8885
59.9361
59.9629
59.8698
59.7880
59.8150
59.9009
59.9927
60.1
59.9275
59.9064
59.9436
59.9917
60.70
59.8967
59.8119
59.8409
59.9114
59.9742
60.64
59.9567
59.9198
59.9349
60.79
60.792
59.9969
59.8882
59.9194
60.86
60.631
60.448
59.9638
59.9304
59.9450
59.9833
60.394
59.9942
59.8956
59.8869
59.9541
60.375
60.715
60.70
59.9651
59.9856
60.329
60.748
59.9910
59.8622
59.8414
59.9104
59.9776
60.149
59.9704
59.9239
59.9030
59.9356
60.111
59.9941
59.8742
59.8390
59.9151
59.9862
60.41
59.9231
59.8632
59.8680
59.8978
59.9417
59.9381
59.8334
59.7866
59.8320
59.9169
59.9984
59.9724
59.9028
59.8982
59.9408
59.9948
59.9810
59.8522
59.7915
59.8375
59.9092
59.9787
59.9795
59.9274
59.9097
59.9407
60.177
60.581
59.9455
59.8710
59.9243
60.24
60.455
60.71
59.9343
59.9062
59.9205
59.9696
60.172
59.9315
59.8416
59.8603
59.9422
60.234
60.311
59.9534
59.9271
59.9592
60.120
60.356
59.9203
59.8114
59.8240
59.8930
59.9500
59.9723
59.9202
59.8823
59.8778
59.9291
60.8
59.9380
59.8268
59.8218
59.9038
59.9628
59.9577
59.8638
59.8257
59.8452
59.8821
59.9302
59.8936
59.7841
59.7555
59.8155
59.9058
59.9681
59.9125
59.8590
59.8762
59.9327
59.9800
59.9296
59.7991
59.7744
59.8386
59.9045
59.9669
59.9410
59.8854
59.8764
59.9253
60.131
60.170
59.8965
59.8563
59.9304
60.61
60.420
59.9789
59.9119
59.9049
59.9287
59.9814
60.3
59.8974
59.8307
59.8746
59.9616
60.352
60.113
59.9552
59.9416
59.9778
60.294
60.239
59.8946
59.8099
59.8483
59.9192
59.9804
59.9784
59.9186
59.8871
59.8960
59.9533
60.36
59.9135
59.8225
59.8544
59.9414
59.9872
59.9535
59.8746
59.8543
59.8727
59.9084
59.9516
59.8785
59.7794
59.7796
59.8589
59.9552
59.9944
59.9238
59.8833
59.9105
59.9650
60.50
59.9227
59.8155
59.8218
59.8912
59.9512
59.9945
59.9511
59.9072
59.9121
59.9673
60.499
60.77
59.8892
59.8826
59.9677
60.315
60.502
59.9788
59.9190
59.9240
59.9640
60.204
60.16
59.8873
59.8479
59.9103
59.9936
60.617
60.111
59.9514
59.9554
59.9998
60.482
60.61
59.8701
59.8184
59.8734
59.9402
60.12
59.9776
59.9188
59.8920
59.9119
59.9901
60.156
59.8962
59.8293
59.8915
59.9694
60.11
59.9400
59.8639
59.8554
59.8823
59.9271
59.9516
59.8530
59.7802
59.8060
59.8910
59.9772
59.9698
59.8964
59.8801
59.9229
59.9717
59.9802
59.8611
59.7817
59.8225
59.8959
59.9573
59.9763
59.9272
59.9002
59.9145
59.9873
60.569
59.9729
59.8682
59.8989
59.9869
60.353
60.209
59.9440
59.9136
59.9285
59.9655
60.154
59.9654
59.8683
59.8579
59.9290
60.100
60.495
59.9862
59.9422
59.9623
60.93
60.415
59.9583
59.8328
59.8227
59.8946
59.9562
60.60
59.9577
59.9066
59.8977
59.9362
60.74
59.9795
59.8584
59.8311
59.9075
59.9759
59.9948
59.9115
59.8516
59.8585
59.8903
59.9366
59.9358
59.8334
59.7848
59.8302
59.9139
60.5
59.9717
59.9071
59.9034
59.9543
60.7
59.9766
59.8547
59.8150
59.8699
59.9331
59.9972
59.9926
59.9432
59.9234
59.9506
60.351
60.764
59.9625
59.8948
59.9509
60.306
60.732
60.318
59.9595
59.9402
59.9655
60.120
60.457
59.9574
59.8752
59.8973
59.9741
60.589
60.649
59.9906
59.9609
59.9883
60.427
60.720
59.9591
59.8583
59.8682
59.9306
59.9921
60.162
59.9621
59.9254
59.9266
59.9715
60.473
59.9776
59.8648
59.8724
59.9566
60.131
60.29
59.9130
59.8810
59.9014
59.9390
59.9873
59.9375
59.8261
59.8036
59.8714
59.9684
60.256
59.9673
59.9211
59.9326
59.9781
60.227
59.9669
59.8521
59.8301
59.8927
59.9593
60.127
59.9862
59.9471
59.9359
59.9777
60.593
60.540
59.9322
59.9026
59.9841
60.601
60.860
60.204
59.9592
59.9532
59.9791
60.291
60.304
59.9246
59.8701
59.9227
60.104
60.765
60.422
59.9775
59.9747
60.163
60.632
60.498
59.9129
59.8475
59.8907
59.9569
60.124
60.35
59.9489
59.9188
59.9360
60.26
60.491
59.9366
59.8426
59.8831
59.9740
60.216
59.9736
59.8881
59.8720
59.8940
59.9373
59.9772
59.8997
59.8134
59.8242
59.8993
59.9878
60.53
59.9323
59.9039
59.9383
59.9991
60.297
59.9281
59.8302
59.8468
59.9116
59.9758
60.226
59.9799
59.9430
59.9477
60.42
60.848
60.254
59.9053
59.9139
60.85
60.711
60.750
59.9995
59.9521
59.9575
59.9889
60.520
60.217
59.9117
59.8903
59.9571
60.367
60.863
60.270
59.9841
60.11
60.461
60.870
60.265
59.8917
59.8574
59.9188
59.9847
60.393
60.9
59.9454
59.9366
59.9707
60.454
60.406
59.9163
59.8645
59.9354
60.72
60.358
59.9619
59.8993
59.9010
59.9325
59.9805
59.9854
59.8805
59.8183
59.8599
59.9442
60.290
60.117
59.9510
59.9439
59.9823
60.348
60.281
59.9003
59.8412
59.8900
59.9566
60.175
60.258
59.9733
59.9506
59.9806
60.607
60.1168
60.95
59.9195
59.9711
60.584
60.1056
60.837
60.42
59.9748
59.9910
60.304
60.751
59.9997
59.9115
59.9210
60.7
60.818
60.956
60.300
60.12
60.248
60.726
60.996
59.9979
59.8833
59.8850
59.9545
60.131
60.412
59.9835
59.9398
59.9401
59.9855
60.600
60.100
59.8851
59.8781
59.9615
60.243
60.239
59.9344
59.8899
59.9048
59.9322
59.9706
59.9374
59.8343
59.8117
59.8720
59.9577
60.283
59.9787
59.9251
59.9282
59.9721
60.195
59.9740
59.8507
59.8236
59.8814
59.9477
60.118
59.9927
59.9416
59.9328
59.9760
60.617
60.697
59.9470
59.8926
59.9638
60.394
60.699
60.201
59.9498
59.9360
59.9609
60.179
60.440
59.9479
59.8794
59.9122
59.9905
60.697
60.539
59.9857
59.9791
60.74
60.518
60.557
59.9227
59.8351
59.8707
59.9435
60.71
60.91
59.9523
59.9168
59.9292
59.9932
60.520
59.9574
59.8664
59.9123
60.137
60.835
60.645
59.9831
59.9698
60.29
60.468
60.982
60.313
59.9460
59.9611
60.495
60.1449
60.1809
60.1176
60.955
60.1389
60.2065
60.2516
60.1631
60.657
60.949
60.1752
60.2499
60.3015
60.2637
60.2415
60.2664
60.3453
60.4455
60.3818
60.2754
60.3095
60.4249
60.5056
60.5149
60.4442
60.4285
60.4642
60.5232
60.5982
60.5591
60.4699
60.4952
60.6006
60.7089
60.7559
60.7003
60.7053
60.7683
60.8456
60.9074
60.8153
60.7111
60.7594
60.8676
60.9696
61.244
60.9847
60.9779
61.230
61.1231
61.2312
61.1632
61.885
61.1665
61.2941
61.3926
61.3785
61.3246
61.3613
61.4332
61.5184
61.5955
61.5361
61.5059
61.5954
61.7268
61.8659
61.8681
61.8433
61.9111
62.164
62.1216
62.1188
62.292
62.738
62.2070
62.3342
62.4414
62.4466
62.4705
62.5422
62.6663
62.8051
62.7634
62.7205
62.8404
62.9953
63.1147
63.1199
63.1047
63.1747
63.2716
63.4040
63.4564
63.4067
63.4608
63.6036
63.7603
63.8548
63.8424
63.9053
64.226
64.1524
64.2239
64.1376
64.1597
64.3077
64.4668
64.5992
64.6097
64.6556
64.7436
64.8779
65.200
64.9858
64.9928
65.1527
65.3258
65.4449
65.4241
65.4652
65.5825
65.7116
65.8508
65.8406
65.8615
66.30
66.1914
66.3612
66.3666
66.4242
66.5603
66.7202
66.8263
66.7741
66.8373
67.88
67.1901
67.3371
67.3826
67.4656
67.5848
67.7820
67.8777
67.8477
67.9700
68.1763
68.3637
68.4108
68.4562
68.5745
68.7188
68.8969
68.9196
68.9626
69.1255
69.3246
69.4816
69.5209
69.6374
69.7972
69.9744
70.133
70.6
70.1386
70.3348
70.5405
70.6243
70.7075
70.8214
71.74
71.1482
71.1449
71.2753
71.4908
71.6875
71.7386
71.8088
71.9472
72.1185
72.2852
72.3138
72.4257
72.6173
72.8542
72.9463
73.363
73.1915
73.3879
73.4999
73.5040
73.6568
73.8589
74.824
74.2004
74.3173
74.4637
74.6989
74.7993
74.8446
75.404
75.2731
75.4375
75.5072
75.6436
75.8119
76.189
76.840
76.2006
76.4023
76.6454
76.7614
76.8851
77.592
77.2745
77.3627
77.3978
77.5733
77.8083
78.131
78.1394
78.2762
78.4607
78.6487
78.6939
78.8656
79.1096
79.3058
79.3879
79.5438
79.7256
79.9376
80.121
80.1494
80.3693
80.6226
80.7401
80.8983
81.1013
81.3047
81.3435
81.4939
81.7211
81.9749
82.1274
82.2818
82.4831
82.7089
82.7757
82.9741
83.2372
83.4375
83.5544
83.7190
83.9303
84.1263
84.2337
84.4242
84.6879
84.8799
85.453
85.2379
85.4688
85.5414
85.6720
85.9080
86.1842
86.3583
86.5188
86.7211
86.9291
87.229
87.2434
87.5215
87.6830
87.8434
88.315
88.2732
88.3917
88.5562
88.8075
89.581
89.2174
89.4190
89.6735
89.7894
89.9365
90.1657
90.4463
90.6485
90.8290
91.729
91.2396
91.3876
91.6577
91.9316
92.936
92.2774
92.5126
92.7112
92.8681
93.1024
93.3720
93.5614
93.7848
94.415
94.1706
94.3148
94.5612
94.8464
95.620
95.2391
95.4848
95.6262
95.8328
96.1253
96.3407
96.5266
96.7248
96.9771
97.1317
97.3362
97.6318
97.8414
98.562
98.3102
98.4703
98.6323
98.8828
99.1784
99.4090
99.6185
99.8861
100.238
100.2718
100.5817
100.7923
100.9977
101.2419
101.4538
101.6489
101.9182
102.1807
102.4192
102.6716
102.8855
103.274
103.2720
103.5850
103.8359
104.353
104.2909
104.4477
104.7162
105.141
105.2146
105.4268
105.6939
105.8787
106.971
106.4009
106.6389
106.8807
107.1448
107.2874
107.5141
107.8213
108.965
108.3245
108.6025
108.7713
109.371
109.3575
109.5998
109.8148
110.911
110.2969
110.5504
110.8510
111.1095
111.3783
111.6222
111.7815
112.362
112.3666
112.6429
112.8822
113.983
113.3168
113.6303
113.8796
114.1111
114.3789
114.5969
114.8251
115.1351
115.3971
115.6606
115.9025
116.773
116.3411
116.6627
116.9384
117.2122
117.4136
117.6718
118.38
118.2734
118.5103
118.7893
119.207
119.3094
119.6021
119.8873
120.1829
120.3637
120.6002
120.9443
121.2563
121.5043
121.7363
121.9861
122.3174
122.5771
122.8196
123.918
123.3156
123.6053
123.9057
124.1794
124.4518
124.6379
124.8981
125.2340
125.5252
125.8085
126.146
126.3103
126.6339
126.9115
127.1878
127.4431
127.7169
128.373
128.3488
128.6598
128.8653
129.1078
129.4592
129.7874
130.718
130.2942
130.5918
130.9158
131.1923
131.4718
131.7158
131.9751
132.2942
132.5984
132.8891
133.845
133.3462
133.6885
133.9898
134.2755
134.5007
134.8312
135.1491
135.4205
135.7073
135.9740
136.3045
136.6263
136.9493
137.1868
137.4311
137.7876
138.1308
138.4267
138.6635
138.9972
139.3167
139.6073
139.8969
140.1454
140.4643
140.7902
141.1044
141.3242
141.5752
141.9206
142.2481
142.5426
142.7806
143.1132
143.4393
143.7238
144.76
144.3005
144.6362
144.9738
145.2771
145.4985
145.8167
146.1943
146.5074
146.7594
147.799
147.4190
147.7210
148.120
148.2759
148.6099
148.9474
149.2445
149.4685
149.7573
150.1228
150.4354
150.6858
150.9904
151.3375
151.6357
151.9248
152.2053
152.5367
152.8771
153.1706
153.5106
154.1657
153.9477
154.5127
154.2707
154.9213
154.8508
155.4265
155.2945
155.6735
155.7308
156.343
156.994
156.1381
156.4132
156.4009
156.7234
156.5204
156.9601
156.7172
157.1863
156.8436
157.3457
157.198
157.5138
157.1296
157.5411
157.3560
157.7193
157.5108
157.6701
157.7038
157.8090
157.8745
157.7239
157.9633
157.7712
158.644
157.6994
158.890
157.7228
158.1525
157.6709
158.1281
157.7955
158.2117
157.8166
158.1099
157.9342
158.1731
158.400
158.486
158.1367
158.640
158.2178
157.9785
158.2875
157.9780
158.3403
157.8836
158.3115
157.9178
158.3468
157.8160
158.1993
157.8851
158.2211
157.9139
158.1039
158.332
158.869
158.979
157.9539
158.1544
157.9747
158.2333
157.8147
158.2061
157.8371
158.2610
157.7559
158.2142
157.8121
158.2321
157.8095
158.1125
157.8974
158.1054
157.9275
157.9198
157.9921
157.8702
158.310
157.6997
158.531
157.7530
158.1272
157.6236
158.638
157.6199
158.815
157.5880
157.9799
157.6984
158.239
157.7338
157.8497
157.8444
157.8596
157.9243
157.7248
157.9563
157.6684
157.9731
157.4827
157.9140
157.4887
157.9462
157.3874
157.8354
157.4864
157.8824
157.5062
157.7132
157.6042
157.6957
157.6770
157.5319
157.7490
157.5725
157.8179
157.3847
157.8087
157.3983
157.8531
157.3081
157.7736
157.3510
157.7770
157.3068
157.5901
157.4141
157.5731
157.4602
157.3762
157.5437
157.3742
157.6075
157.2223
157.6155
157.2371
157.6777
157.1048
157.5843
157.1571
157.6064
157.1300
157.4826
157.2742
157.5003
157.3470
157.3365
157.4166
157.2929
157.4584
157.765
157.4432
157.395
157.4757
156.8939
157.4038
156.9649
157.4245
156.9390
157.3000
157.492
157.3071
157.1240
157.1186
157.2253
157.1183
157.2912
156.9253
157.3255
156.9280
157.3680
156.7956
157.2978
156.8209
157.2910
156.7592
157.1040
156.8800
157.1164
156.9360
156.9060
157.353
156.9196
157.1132
156.7408
157.1272
156.7112
157.1750
156.5833
157.966
156.6452
157.1151
156.6093
156.9815
156.7794
156.9753
156.8545
156.7844
156.9276
156.7343
156.9664
156.5015
156.9488
156.5175
156.9931
156.3514
156.8844
156.4582
156.9154
156.4630
156.7528
156.5964
156.7477
156.6778
156.5205
156.7654
156.5595
156.8454
156.3395
156.8372
156.3962
156.9009
156.2811
156.7819
156.3340
156.7667
156.3397
156.5265
156.4706
156.5382
156.5389
156.2652
156.5985
156.2883
156.6789
156.1243
156.6425
156.1323
156.6709
156.577
156.5290
156.2110
156.5475
156.2408
156.3134
156.3779
156.3105
156.4585
156.750
156.4651
156.234
156.4821
155.8379
156.3778
155.8816
156.3811
155.8283
156.2123
156.105
156.2008
156.855
156.55
156.1707
155.9526
156.2506
155.7593
156.2501
155.7908
156.2945
155.6363
156.1805
155.7674
156.2039
155.8148
155.9911
155.9377
155.9356
155.9918
155.6885
156.400
155.6650
156.888
155.4920
156.534
155.5551
156.709
155.4944
155.9151
155.6269
155.8974
155.7220
155.6614
155.8482
155.6752
155.9307
155.4578
155.9545
155.4904
156.80
155.3742
155.9091
155.4400
155.8878
155.4463
155.6303
155.6026
155.6240
155.6763
155.3732
155.7493
155.3890
155.8183
155.2444
155.7874
155.2665
155.8070
155.2159
155.6219
155.4103
155.6493
155.4816
155.4180
155.6220
155.4227
155.7140
155.2428
155.7133
155.2053
155.7195
155.429
155.5603
155.1670
155.5675
155.2037
155.3613
155.3728
155.3515
155.4653
155.1075
155.5058
155.848
155.5754
154.9419
155.5058
155.382
155.5404
155.118
155.3672
155.2061
155.3519
155.3095
155.1212
155.3876
155.740
155.4393
154.8566
155.3877
154.8719
155.4082
154.7794
155.2560
154.9673
155.2702
155.581
155.434
155.1779
154.9886
155.2729
154.7977
155.2953
154.8417
155.3524
154.6822
155.2377
154.8265
155.2528
154.9106
155.583
155.387
155.92
155.1101
154.7075
155.1365
154.7251
155.2058
154.5537
155.1238
154.6415
155.1303
154.6649
154.9455
154.8292
154.9334
154.9432
154.6821
155.326
154.6836
155.1031
154.5115
155.878
154.5841
155.1188
154.5373
154.9222
154.6917
154.8845
154.7683
154.6265
154.8719
154.5828
154.9387
154.3916
154.9380
154.4215
154.9588
154.3456
154.8116
154.4968
154.8188
154.6083
154.5622
154.7575
154.5691
154.8432
154.3708
154.8804
154.3678
154.9131
154.2792
154.7972
154.3861
154.7757
154.4436
154.4807
154.5926
154.4838
154.6820
154.1990
154.7028
154.2420
154.7663
154.1441
154.6863
154.2084
154.6366
154.3049
154.4767
154.4937
154.4481
154.5790
154.1847
154.6513
154.2477
154.7377
154.505
154.6039
154.1279
154.6002
154.1668
154.3587
154.3326
154.3178
154.4195
154.750
154.4943
154.574
154.5494
153.9487
154.5062
153.9661
154.4641
154.325
154.3159
154.2372
154.2743
154.3291
154.385
154.4336
154.619
154.5147
153.8469
154.4160
153.9251
154.4368
153.8977
154.1630
154.937
154.1889
154.1859
153.8618
154.2680
153.9322
154.3681
153.6994
154.2727
153.7907
154.3259
153.7990
154.916
154.179
154.1199
154.1229
153.8446
154.2249
153.8699
154.3193
153.6695
154.2370
153.7141
154.2324
153.7018
153.9974
153.8953
153.9903
153.9880
153.6857
154.801
153.7313
154.1801
153.5254
154.930
153.5942
154.1369
153.6178
153.9089
153.8341
153.9347
153.9379
153.6430
154.424
153.6961
154.1408
153.4635
154.360
153.5402
154.545
153.5239
153.7946
153.7186
153.7851
153.8130
153.4947
153.9067
153.4955
153.9773
153.3563
153.9212
153.3846
153.8901
153.4651
153.7468
153.6763
153.6675
153.7730
153.4747
153.8859
153.4366
153.9459
153.3131
153.8720
153.3457
153.8208
153.4083
153.5922
153.5893
153.5779
153.6910
153.2681
153.7459
153.3347
153.8369
153.1548
153.7139
153.2567
153.7160
153.3639
153.5301
153.5597
153.4515
153.6548
153.2622
153.7419
153.2305
153.7765
153.1364
153.6758
153.2242
153.6272
153.3138
153.3564
153.4738
153.3466
153.5753
153.656
153.6010
153.963
153.6417
153.197
153.5394
153.1458
153.4718
153.2836
153.2601
153.4537
153.2439
153.5557
152.9929
153.5654
153.873
153.6396
152.9811
153.4449
153.1566
153.3875
153.2520
153.1298
153.3767
153.603
153.4538
152.8259
153.4239
152.9366
153.4757
152.8871
153.2723
153.901
153.2297
153.2258
153.75
153.3480
152.9646
153.4199
152.7757
153.3809
152.8974
153.4252
152.9079
153.1810
153.967
153.1098
153.1989
152.8458
153.2601
152.8130
153.3255
152.6264
153.2142
152.7782
153.2246
152.8683
153.300
153.459
152.9278
153.1713
152.7066
153.2164
152.7601
153.2935
152.6009
153.1517
152.7857
153.1419
152.9174
152.9279
153.628
152.8200
153.1329
152.5620
153.1185
152.5969
153.1489
152.5125
152.9691
152.7430
152.9451
152.8761
152.6983
152.9959
152.6464
153.950
152.4725
153.559
152.5419
153.690
152.5534
152.8790
152.7986
152.8772
152.9273
152.6112
153.24
152.5246
153.359
152.3442
152.9130
152.4762
152.9244
152.5397
152.6748
152.7488
152.6329
152.8690
152.3874
152.9006
152.3805
152.9540
152.2960
152.8118
152.4954
152.8042
152.6101
152.5471
152.7854
152.5151
152.8948
152.3063
152.8692
152.3212
152.8691
152.2627
152.6469
152.4847
152.5818
152.5992
152.3037
152.7118
152.3119
152.7957
152.1531
152.7317
152.2174
152.7153
152.3198
152.4866
152.5372
152.4475
152.6559
152.2037
152.7238
152.2485
152.7950
152.1176
152.6482
152.2585
152.5708
152.3714
152.2964
152.5259
152.2440
152.6197
151.9955
152.5945
152.919
152.6401
152.696
152.4604
152.2773
152.3732
152.4223
152.1242
152.5387
152.1176
152.6183
151.9397
152.5476
152.900
152.5658
152.1777
152.3303
152.3577
152.2184
152.4523
151.9592
152.4773
151.9428
152.5084
151.8376
152.3489
152.752
152.3281
152.2084
152.885
152.3533
152.450
152.4673
151.8334
152.4270
151.9102
152.4378
151.9274
152.2449
152.1830
152.1978
152.3195
151.9384
152.3870
151.9058
152.4317
151.7250
152.2788
151.8872
152.2905
151.9822
151.9961
152.1846
151.9793
152.3057
151.7393
152.3013
151.7374
152.3251
151.7439
152.1537
151.9878
152.1096
152.1208
151.8598
152.2599
151.8505
152.3477
151.6828
152.2635
151.7593
152.2366
151.8336
151.9641
152.346
151.9169
152.1515
151.6352
152.1866
151.6555
152.2222
151.5915
152.783
151.7932
152.187
151.9508
151.7681
152.1039
151.7400
152.1957
151.5370
152.1593
151.6618
152.1766
151.7233
151.9372
151.9262
151.8780
152.369
151.5629
152.693
151.5824
152.1393
151.4297
151.9617
151.6584
151.9776
151.8013
151.7100
151.9528
151.6421
152.707
151.4373
152.355
151.5204
152.540
151.5454
151.8577
151.7996
151.7973
151.9439
151.5414
152.81
151.4785
152.338
151.3432
151.8817
151.5238
151.8469
151.6423
151.5712
151.8292
151.5313
151.9373
151.3184
151.9141
151.3588
151.9205
151.4110
151.7167
151.6649
151.6746
151.7991
151.4117
151.8974
151.4094
151.9674
151.2889
151.8358
151.4299
151.7669
151.5550
151.4826
151.7204
151.4239
151.8199
151.1755
151.7924
151.2617
151.8035
151.3037
151.6136
151.5315
151.5378
151.6822
151.2832
151.7702
151.2859
151.8373
151.1506
151.7272
151.3554
151.6956
151.5068
151.4394
151.6647
151.3430
151.7453
151.1077
151.6972
151.1591
151.7021
151.1874
151.4941
151.4426
151.4251
151.5832
151.1935
151.6671
151.1474
151.7206
151.522
151.6032
151.2563
151.5674
151.3946
151.3295
151.5894
151.2785
151.6952
151.661
151.6574
151.1053
151.6370
151.1356
151.3689
151.3645
151.3170
151.4978
151.75
151.5562
151.464
151.6123
150.9526
151.4635
151.1662
151.4207
151.3322
151.1535
151.4920
151.1339
151.6011
150.9268
151.5509
151.422
151.5505
151.1502
151.3197
151.3515
151.2215
151.4629
150.9622
151.4865
150.9534
151.5257
150.8571
151.3379
151.1195
151.3062
151.2688
151.159
151.3951
150.9788
151.5018
150.7873
151.3894
150.9676
151.4134
151.718
151.1464
151.3034
151.1087
151.4411
150.8649
151.4339
150.8635
151.4328
150.8324
151.2248
151.783
151.1638
151.2112
150.8406
151.3187
150.8481
151.3897
150.7046
151.2732
150.8791
151.2439
151.401
150.9754
151.2393
150.9492
151.3529
150.7294
151.3498
150.8065
151.3536
150.8647
151.1502
151.897
151.526
151.2082
150.7224
151.2538
150.7405
151.3123
150.6142
151.1312
150.8819
151.1054
151.344
150.8470
151.1808
150.7899
151.2900
150.6195
151.2232
150.7476
151.2296
150.8456
150.9762
151.926
150.9246
151.2272
150.6585
151.2333
150.6623
151.2371
150.6325
151.340
150.8769
150.9713
151.172
150.6749
151.1360
150.6549
151.2027
150.5192
151.894
150.6904
151.553
150.8632
150.7913
151.573
150.7575
151.1738
150.5552
151.1744
150.6279
151.1665
150.6922
150.9290
150.9192
150.8276
151.391
150.5312
151.741
150.5470
151.1260
150.4590
150.9620
150.7130
150.8976
150.8772
150.6261
151.111
150.5739
151.1089
150.4111
151.150
150.5900
151.167
150.7154
150.7804
150.9426
150.7281
151.754
150.4620
151.559
150.4830
151.383
150.4929
150.7922
150.7450
150.7353
150.8804
150.4499
150.9593
150.4476
151.133
150.3335
150.8502
150.5605
150.8021
150.7299
150.5443
150.8977
150.5110
150.9926
150.2983
150.9244
150.4364
150.9023
150.5823
150.6562
150.7841
150.5525
150.8853
150.3053
150.8792
150.3280
150.8913
150.3029
150.6368
150.5954
150.6047
150.7507
150.3522
150.8365
150.3196
150.9042
150.2015
150.7275
150.4709
150.7196
150.6139
150.4370
150.7911
150.4066
150.8970
150.2279
150.8234
150.2942
150.7480
150.4171
150.4799
150.6322
150.4096
150.7539
150.1436
150.7535
150.2011
150.7640
150.2429
150.5689
150.4931
150.4902
150.6571
150.2351
150.7489
150.2574
150.8203
150.1122
150.6417
150.3769
150.6179
150.5554
150.3581
150.6862
150.2528
150.7510
150.201
150.6223
150.1833
150.6115
150.3035
150.3462
150.5319
150.2777
150.6559
150.269
150.6341
150.804
150.6557
150.1522
150.4344
150.4286
150.3831
150.5721
150.765
150.6434
150.1088
150.6993
150.605
150.5422
150.2664
150.4075
150.4078
150.1055
150.5303
150.761
150.6132
149.8758
150.4670
150.888
150.4460
150.2588
150.1957
150.4376
150.1184
150.5640
149.8687
150.4988
150.151
150.5294
150.1054
150.2947
150.3599
150.2337
150.5135
149.9298
150.5174
149.9455
150.5240
149.9179
150.2964
150.1788
150.2044
150.3234
149.9091
150.4212
149.9284
150.4924
149.8023
150.3244
150.276
150.2720
150.2065
150.79
150.3769
149.9810
150.4797
149.7567
150.3825
149.9356
150.3726
150.982
150.1106
150.2876
149.9698
150.3800
149.7425
150.3479
149.8113
150.3558
149.8673
150.620
150.1314
150.238
150.2876
149.7604
150.3298
149.7506
150.3535
149.7556
150.1761
150.401
150.1373
150.2009
149.8014
150.3106
149.8080
150.3876
149.7158
150.2547
149.8909
150.1259
150.401
149.8594
150.2049
149.7888
150.2885
149.5473
150.1709
149.7414
150.1724
149.9078
149.9020
150.1064
149.7970
150.2359
149.6048
150.2261
149.7017
150.2322
149.7689
149.9703
150.428
149.9387
150.2036
149.6285
150.2108
149.6363
150.2206
149.6202
150.20
149.8820
149.8973
150.313
149.6229
150.1400
149.6091
150.1841
149.5158
150.298
149.7594
149.9878
149.9436
149.6644
150.934
149.6614
150.1970
149.5077
150.1172
149.6738
150.442
149.8568
149.7914
150.406
149.6952
150.1350
149.4211
150.381
149.5460
150.503
149.6506
149.7424
149.9037
149.6908
150.449
149.4571
150.556
149.4683
150.500
149.5480
149.8537
149.8297
149.7667
149.9761
149.4834
150.587
149.5253
150.1126
149.4589
149.8881
149.7132
149.8111
149.8598
149.4606
149.9524
149.4518
150.283
149.3121
149.8698
149.5730
149.8080
149.7488
149.5632
149.9073
149.4493
150.58
149.3069
149.9127
149.4892
149.9004
149.6416
149.5912
149.8722
149.5739
150.66
149.3097
149.9296
149.3945
149.9050
149.5032
149.6030
149.7407
149.5247
149.8710
149.2507
149.8775
149.3089
149.8663
149.3854
149.6947
149.6347
149.5366
149.8059
149.3143
149.8754
149.3231
149.9107
149.2770
149.7217
149.5778
149.6813
149.7563
149.3381
149.8417
149.3263
149.8967
149.1634
149.6705
149.4358
149.6582
149.5932
149.2888
149.7429
149.2975
149.8394
149.1305
149.7197
149.3250
149.6818
149.5153
149.3752
149.7191
149.3564
149.8379
149.1586
149.7958
149.2834
149.7414
149.4593
149.5172
149.6697
149.3544
149.7631
149.1254
149.7376
149.1819
149.7106
149.2766
149.4669
149.5491
149.3897
149.7001
149.1265
149.7263
149.1663
149.7643
149.1897
149.4995
149.4966
149.4966
149.6573
149.1441
149.7259
149.2034
149.8002
149.1426
149.5760
149.3977
149.4966
149.5471
149.1344
149.6395
149.1405
149.7199
148.9824
149.5153
149.2731
149.4985
149.4574
149.1759
149.5969
149.1328
149.6993
148.9671
149.5551
149.2080
149.5494
149.3714
149.2318
149.5742
149.1842
149.6909
149.18
149.6092
149.979
149.5265
149.2499
149.2319
149.4659
149.1452
149.5798
148.8784
149.5282
149.173
149.5263
149.1571
149.2671
149.3891
149.1723
149.5460
148.9052
149.5422
149.141
149.5695
149.714
149.3248
149.3622
149.2517
149.5284
148.9857
149.5612
148.9566
149.5460
148.9616
149.3036
149.2459
149.2360
149.3950
148.8873
149.4718
148.9401
149.5284
148.8799
149.3240
149.1549
149.2707
149.3456
148.9371
149.4595
148.9766
149.5535
148.8314
149.3699
149.1212
149.3543
149.3181
149.205
149.4403
148.9635
149.5111
148.7602
149.3322
148.9986
149.3283
149.1620
148.9610
149.3495
148.9584
149.4676
148.7502
149.3663
148.9222
149.3457
149.1126
149.356
149.3411
149.256
149.4702
148.7610
149.4139
148.9199
149.4116
149.814
149.1278
149.2957
149.70
149.4087
148.7530
149.3725
148.8226
149.3459
148.9269
149.1044
149.2025
148.9821
149.3487
148.7930
149.3884
148.7683
149.3545
148.8803
149.1479
149.1751
149.616
149.3260
148.7964
149.4025
148.8167
149.4102
148.8441
149.2134
149.1078
149.811
149.2526
148.7520
149.3134
148.7833
149.3731
148.6874
149.1315
149.97
149.1167
149.1902
148.7692
149.2863
148.7715
149.3749
148.6674
149.1851
148.9764
149.1662
149.1462
148.8388
149.3003
148.8009
149.3825
148.6983
149.2618
148.8903
149.1237
149.575
148.8336
149.2253
148.7550
149.3023
148.5701
149.1794
148.8015
149.1384
148.9959
148.8450
149.1791
148.7796
149.3013
148.5714
149.1949
148.7823
149.2165
148.9356
148.8755
149.1686
148.8633
149.3146
148.6034
149.2243
148.6979
149.1718
148.8422
148.8866
149.748
148.7637
149.1927
148.5264
149.1704
148.6225
149.1354
148.7778
148.9024
149.233
148.7956
149.1791
148.5285
149.1687
148.6562
149.2158
148.7196
148.9257
149.134
148.9118
149.1888
148.5775
149.1861
148.6109
149.1859
148.6334
148.9286
148.9147
148.8043
149.656
148.5205
149.1297
148.5572
149.1466
148.5887
148.9392
148.8632
148.8671
149.566
148.5417
149.1268
148.6224
149.2117
148.5376
148.9832
148.8565
148.9483
149.532
148.6242
149.1349
148.5628
149.1602
148.4904
148.9780
148.7618
148.8655
148.9266
148.5425
149.607
148.5505
149.1330
148.4388
148.9662
148.7035
148.9278
148.9035
148.5851
149.562
148.5986
149.1593
148.4407
149.312
148.6904
148.9401
148.8942
148.6991
149.583
148.5466
149.1063
148.3874
148.9731
148.6033
148.9335
148.7765
148.5851
148.9733
148.5792
149.947
148.3756
148.9906
148.5483
148.9324
148.7512
148.6614
148.9751
148.5822
149.849
148.3912
149.352
148.5482
148.9920
148.7415
148.6964
148.9448
148.6174
149.559
148.3325
148.9575
148.4706
148.9436
148.6103
148.6557
148.8658
148.5421
148.9925
148.3528
148.9812
148.4173
148.9441
148.5804
148.6576
148.8547
148.6454
148.9992
148.3245
148.9822
148.4446
148.9888
148.5685
148.7393
148.8106
148.5670
148.9281
148.2909
148.9179
148.3766
148.9370
148.4360
148.6289
148.7296
148.5701
148.8957
148.3210
148.9235
148.3151
148.9055
148.4201
148.6953
148.7255
148.6042
148.8789
148.3046
148.9311
148.3898
148.9859
148.4032
148.7108
148.6785
148.5966
148.8275
148.3115
148.8833
148.2868
148.8830
148.2892
148.6457
148.6126
148.6124
148.7948
148.2781
148.8544
148.2911
148.9047
148.2789
148.6961
148.6072
148.6146
148.7800
148.3221
148.8842
148.3259
148.9340
148.2890
148.7256
148.5610
148.6323
148.7251
148.2860
148.8110
148.2514
148.8562
148.1747
148.6511
148.4922
148.6016
148.6861
148.2815
148.7954
148.2566
148.8691
148.1811
148.6942
148.4875
148.6179
148.6678
148.3216
148.8242
148.3007
148.8924
148.1928
148.7135
148.4434
148.6386
148.6166
148.2935
148.7536
148.2244
148.8125
148.898
148.6516
148.3912
148.6135
148.5858
148.2805
148.7306
148.2487
148.8400
148.1221
148.6953
148.3921
148.6240
148.5728
148.3322
148.7668
148.2991
148.8610
148.1335
148.7162
148.3511
148.6384
148.5229
148.2944
148.6931
148.2207
148.7807
148.334
148.6417
148.2912
148.6266
148.4884
148.2920
148.6685
148.2135
148.7785
148.619
148.6713
148.2904
148.6261
148.4707
148.3155
148.6860
148.2938
148.8097
148.766
148.6888
148.2386
148.5955
148.4165
148.2718
148.6197
148.2205
148.7269
147.9695
148.6145
148.1921
148.5699
148.3982
148.3296
148.6036
148.1779
148.7169
147.9997
148.6395
148.2207
148.6523
148.3804
148.3146
148.6252
148.2635
148.7598
148.710
148.6907
148.1670
148.6015
148.3440
148.2811
148.5701
148.2304
148.6953
147.9725
148.6247
148.1320
148.5775
148.3324
148.3057
148.5486
148.2330
148.7073
147.9981
148.6403
148.1591
148.6232
148.3165
148.3548
148.5836
148.2621
148.7174
148.287
148.6637
148.1287
148.6216
148.2676
148.3119
148.5113
148.1822
148.6321
147.9254
148.5895
148.957
148.6038
148.2414
148.2956
148.4853
148.1834
148.6363
147.9630
148.6103
148.986
148.6060
148.2289
148.3157
148.5122
148.2576
148.6655
148.143
148.6351
148.407
148.5599
148.1852
148.2684
148.4454
148.2015
148.5882
147.9075
148.5586
148.63
148.5338
148.1734
148.2775
148.4181
148.1997
148.5939
147.9210
148.5664
148.351
148.5639
148.1615
148.3079
148.4522
148.2326
148.6117
147.9526
148.5823
148.88
148.5521
148.1225
148.2708
148.3923
148.1582
148.5286
147.8533
148.5151
147.9794
148.5263
148.1159
148.2969
148.3698
148.1367
148.5356
147.8930
148.5407
148.297
148.5824
148.1007
148.2947
148.3990
148.1935
148.5662
147.9419
148.5622
147.9896
148.5508
148.625
148.2417
148.3487
148.1395
148.4974
147.8396
148.4968
147.9694
148.5303
148.644
148.2503
148.3309
148.1396
148.5105
147.8829
148.5260
147.9829
148.5451
148.621
148.2735
148.3729
148.2162
148.5454
147.9512
148.5552
147.9338
148.5057
148.321
148.2296
148.3168
148.1540
148.4703
147.8324
148.4797
147.9188
148.4907
148.346
148.2449
148.3007
148.1467
148.4837
147.8904
148.5161
147.9464
148.5143
148.354
148.2743
148.3424
148.2231
148.5202
147.9168
148.5301
147.9203
148.4972
148.33
148.2201
148.2943
148.1709
148.4459
147.8264
148.4660
147.8883
148.4682
148.58
148.2448
148.2756
148.1527
148.4620
147.8683
148.4914
147.9284
148.5053
148.13
148.2712
148.3157
148.2075
148.4940
147.8904
148.5046
147.9066
148.4879
147.9707
148.2137
148.2672
148.1482
148.4239
147.8058
148.4470
147.8817
148.4602
147.9758
148.2388
148.2473
148.1318
148.4375
147.8376
148.4669
147.9256
148.5032
147.9702
148.2631
148.2912
148.1770
148.4705
147.8784
148.4912
147.9002
148.4851
147.9503
148.2167
148.2389
148.1082
148.3999
147.8002
148.4397
147.8744
148.4562
147.9512
148.2409
148.2361
148.1132
148.4202
147.8393
148.4631
147.9140
148.4989
147.9609
148.2792
148.2738
148.1507
148.4524
147.8811
148.4892
147.9006
148.4884
147.9290
148.2057
148.2287
148.1069
148.3892
147.7890
148.4265
147.8658
148.4499
147.9369
148.2478
148.2160
148.894
148.4000
147.8182
148.4490
147.9212
148.5023
147.9301
148.2478
148.2535
148.1437
148.4378
147.8638
148.4658
147.8800
148.4685
147.9037
148.1916
148.2072
148.826
148.3613
147.7614
148.4058
147.8474
148.4307
147.9099
148.2217
148.1971
148.759
148.3838
147.8014
148.4248
147.8905
148.4770
147.9138
148.2362
148.2359
148.1219
148.4127
147.8411
148.4509
147.8665
148.4526
147.8829
148.1635
148.1851
148.620
148.3426
147.7400
148.3798
147.8159
148.3949
147.8887
148.1848
148.1730
148.510
148.3565
147.7577
148.3913
147.8475
148.4304
147.8929
148.1954
148.2078
148.908
148.3826
147.7974
148.4092
147.8080
148.3912
147.8567
148.1133
148.1484
148.260
148.3083
147.6950
148.3347
147.7617
148.3338
147.8573
148.1060
148.1381
148.288
148.3229
147.7054
148.3403
147.7911
148.3681
147.8661
148.1143
148.1736
148.611
148.3557
147.7534
148.3699
147.7578
148.3314
147.8437
148.545
148.1306
147.9896
148.2942
147.6710
148.3116
147.7346
148.3052
147.8563
148.695
148.1275
147.9669
148.3104
147.6999
148.3324
147.7728
148.3399
147.8627
148.787
148.1736
148.32
148.3419
147.7484
148.3582
147.7453
148.3135
147.8374
148.236
148.1281
147.9162
148.2713
147.6185
148.2782
147.7394
148.2955
147.8422
148.316
148.1148
147.8944
148.2899
147.6424
148.2863
147.7699
148.3282
147.8572
148.496
148.1567
147.9375
148.3197
147.6753
148.3105
147.7327
148.2794
147.8386
147.9662
148.1113
147.8834
148.2620
147.5800
148.2431
147.6974
148.2282
147.8538
147.9830
148.1172
147.8918
148.2875
147.6162
148.2669
147.7364
148.2631
147.8734
147.9897
148.1675
147.9527
148.3309
147.6654
148.2997
147.7145
148.2385
147.8605
147.9344
148.1185
147.8390
148.2592
147.5713
148.2337
147.7021
148.2148
147.8667
147.9330
148.1158
147.8159
148.2768
147.5829
148.2358
147.7480
148.2616
147.8853
147.9522
148.1627
147.8509
148.3044
147.6221
148.2636
147.7228
148.2192
147.8651
147.8853
148.1118
147.7899
148.2489
147.5277
148.1889
147.6881
148.1536
147.8770
147.8799
148.1161
147.7992
148.2674
147.5515
148.1976
147.7206
148.1726
147.8945
147.8751
148.1535
147.8310
148.2989
147.5906
148.2213
147.6936
148.1354
147.8760
147.8107
148.1042
147.7218
148.2222
147.4804
148.1394
147.6917
148.1249
147.8818
147.8146
148.1051
147.6955
148.2320
147.5068
148.1499
147.7333
148.1507
147.9118
147.8326
148.1523
147.7415
148.2718
147.5499
148.1719
147.7118
148.801
147.8990
147.7487
148.1043
147.7046
148.2222
147.4717
148.1037
147.6904
148.314
147.9076
147.7466
148.1106
147.6603
148.2246
147.4940
148.1119
147.7451
148.795
147.9339
147.7562
148.1541
147.6870
148.2542
147.5423
148.1437
147.7448
148.644
147.9248
147.7066
148.1085
147.6294
148.1988
147.4517
148.589
147.7301
147.9807
147.9414
147.6998
148.1195
147.6381
148.2251
147.4927
148.805
147.7836
148.182
147.9707
147.6990
148.1651
147.6899
148.2642
147.5496
148.1156
147.7772
147.9864
147.9619
147.6513
148.1120
147.5848
148.1822
147.4524
148.58
147.7641
147.9624
147.9736
147.6671
148.1230
147.5681
148.1897
147.4874
148.184
147.8078
147.9546
147.9968
147.6356
148.1541
147.6478
148.2419
147.5340
148.415
147.8002
147.9098
147.9853
147.5807
148.999
147.5460
148.1555
147.4573
147.9508
147.7965
147.9077
147.9906
147.5709
148.1005
147.5220
148.1565
147.5006
147.9531
147.8348
147.9137
148.229
147.5722
148.1446
147.5829
148.1930
147.5453
147.9773
147.8390
147.8436
148.112
147.5062
148.849
147.5484
148.1508
147.4844
147.8919
147.8264
147.8231
148.204
147.5155
148.980
147.4997
148.1280
147.5402
147.9026
147.8778
147.8701
148.611
147.5304
148.1402
147.5512
148.1585
147.5933
147.9197
147.8788
147.7780
148.371
147.4573
148.710
147.5241
148.1170
147.5273
147.8328
147.8589
147.7335
148.356
147.4600
148.760
147.4749
148.799
147.5862
147.8267
147.8981
147.7801
148.703
147.4645
148.1062
147.5130
148.959
147.6379
147.8370
147.9032
147.6874
148.410
147.3869
148.232
147.4819
148.427
147.5695
147.7328
147.8705
147.6426
148.283
147.3760
148.185
147.4432
147.9942
147.6157
147.7163
147.9033
147.6734
148.628
147.3830
148.453
147.4943
148.207
147.6684
147.7271
147.9071
147.5797
148.281
147.3183
147.9599
147.4527
147.9330
147.6109
147.6027
147.8765
147.5572
148.186
147.3265
147.9653
147.4356
147.8966
147.6557
147.6014
147.9089
147.5475
148.380
147.3137
147.9719
147.5142
147.9550
147.7155
147.6316
147.9246
147.4885
148.143
147.2791
147.9043
147.4814
147.8374
147.6742
147.5069
147.8991
147.4748
148.136
147.2959
147.9087
147.4970
147.8477
147.7258
147.5242
147.9348
147.4691
148.353
147.3007
147.9183
147.5780
147.8600
147.7898
147.5394
147.9544
147.4628
148.324
147.2867
147.8487
147.5517
147.7698
147.7393
147.4291
147.9176
147.3916
147.9850
147.2904
147.8334
147.5699
147.7589
147.7959
147.4361
147.9430
147.4371
148.289
147.3170
147.8590
147.6384
147.7633
147.8498
147.4459
147.9654
147.3794
147.9913
147.3145
147.7800
147.6265
147.7154
147.8127
147.3475
147.9255
147.3722
147.9787
147.3388
147.7794
147.6526
147.6681
147.8661
147.3728
147.9616
147.4253
148.234
147.3847
147.8006
147.7314
147.7289
147.9264
147.4061
147.9894
147.3738
147.9825
147.3982
147.7295
147.7109
147.6288
147.8820
147.2963
147.9364
147.3866
147.9767
147.4313
147.7332
147.7266
147.6054
147.9226
147.3213
147.9567
147.3939
147.9700
147.4748
147.7164
147.7978
147.6519
147.9723
147.3432
147.9711
147.3825
147.9553
147.4778
147.6515
147.7591
147.5253
147.9087
147.2414
147.9081
147.3487
147.8818
147.5167
147.6226
147.7742
147.5216
147.9487
147.2678
147.9191
147.3987
147.9117
147.5480
147.6273
147.8356
147.5205
147.9784
147.2879
147.9291
147.3902
147.8656
147.5613
147.5350
147.8030
147.4741
147.9370
147.1903
147.8529
147.3903
147.8307
147.5849
147.5160
147.8076
147.4000
147.9417
147.2139
147.8547
147.4405
147.8289
147.6288
147.5076
147.8697
147.4649
147.9912
147.2640
147.8804
147.4353
147.7708
147.6348
147.4438
147.8289
147.3473
147.9152
147.1681
147.7842
147.4533
147.7141
147.6667
147.4111
147.8383
147.3609
147.9567
147.2158
147.7866
147.5127
147.7328
147.7060
147.4128
147.8924
147.3607
147.9663
147.2632
147.7978
147.5278
147.6829
147.7180
147.3288
147.8432
147.3243
147.9244
147.1983
147.7122
147.5365
147.6431
147.7359
147.3267
147.8570
147.2713
147.9106
147.2551
147.7119
147.6001
147.6458
147.7880
147.3133
147.9014
147.3563
147.9688
147.3221
147.7393
147.6120
147.5890
147.7891
147.2715
147.8507
147.2550
147.8641
147.2794
147.6278
147.6164
147.5291
147.7987
147.2365
147.8527
147.2765
147.8901
147.3417
147.6091
147.6637
147.5537
147.8469
147.2497
147.8905
147.2989
147.8825
147.4161
147.6223
147.6911
147.4790
147.8352
147.1817
147.8176
147.2725
147.8265
147.3795
147.5133
147.6790
147.4612
147.8418
147.1806
147.8259
147.2571
147.8001
147.4419
147.5122
147.7257
147.4274
147.8753
147.1760
147.8455
147.3298
147.8220
147.5200
147.5263
147.7565
147.4177
147.8752
147.1320
147.7721
147.3022
147.7456
147.4837
147.4201
147.7339
147.3244
147.8495
147.1418
147.7769
147.3230
147.7104
147.5518
147.3972
147.7762
147.3930
147.9122
147.1538
147.7904
147.4028
147.7545
147.6234
147.4228
147.8077
147.3085
147.8811
147.1423
147.7275
147.4061
147.6526
147.6046
147.3191
147.7859
147.2844
147.8745
147.1822
147.7470
147.4416
147.6688
147.6706
147.3599
147.8416
147.3173
147.9177
147.2100
147.7639
147.5343
147.6768
147.7528
147.3696
147.8789
147.3160
147.9203
147.2220
147.6939
147.5355
147.6432
147.7200
147.2726
147.8418
147.2790
147.8867
147.2544
147.6958
147.5570
147.5717
147.7724
147.2715
147.8659
147.3334
147.9356
147.2945
147.6923
147.6361
147.6393
147.8399
147.3168
147.8956
147.2766
147.8822
147.3069
147.6297
147.6256
147.5133
147.7908
147.1953
147.8426
147.2647
147.8487
147.3634
147.6217
147.6520
147.5240
147.8454
147.2288
147.8662
147.3090
147.8808
147.4117
147.6255
147.7216
147.5232
147.8954
147.2497
147.8879
147.3023
147.8440
147.4212
147.5377
147.7065
147.4757
147.8586
147.1479
147.8170
147.2927
147.8130
147.4651
147.5314
147.7182
147.3919
147.8754
147.1685
147.8303
147.3492
147.8189
147.5106
147.4988
147.7830
147.4627
147.9312
147.2271
147.8558
147.3265
147.7628
147.5186
147.4421
147.7439
147.3310
147.8554
147.1090
147.7592
147.3391
147.6962
147.5548
147.4022
147.7618
147.3125
147.8796
147.1441
147.7628
147.4082
147.7458
147.6000
147.4037
147.8175
147.3395
147.9176
147.1934
147.7812
147.4292
147.6643
147.6152
147.3126
147.7844
147.2816
147.8694
147.1167
147.6817
147.4425
147.6483
147.6613
147.3276
147.8075
147.2689
147.8877
147.1815
147.7082
147.5125
147.6280
147.7089
147.3158
147.8628
147.2987
147.9178
147.2522
147.7184
147.5397
147.6103
147.7213
147.2412
147.8076
147.2664
147.8677
147.1884
147.6261
147.5346
147.5213
147.7292
147.2307
147.8120
147.2020
147.8302
147.2564
147.6071
147.5978
147.5332
147.7742
147.2034
147.8395
147.2723
147.8771
147.3271
147.6266
147.6109
147.4679
147.7657
147.1665
147.7826
147.1899
147.7687
147.2916
147.5006
147.6051
147.3840
147.7640
147.1322
147.7772
147.2040
147.7684
147.3583
147.4730
147.6618
147.4497
147.8267
147.1421
147.8052
147.2563
147.7865
147.4382
147.4942
147.6822
147.3443
147.8027
147.848
147.7345
147.2368
147.6995
147.4087
147.3661
147.6665
147.3018
147.8052
147.964
147.7358
147.2609
147.7063
147.4738
147.3609
147.7197
147.3318
147.8480
147.1117
147.7551
147.3311
147.6890
147.5554
147.3764
147.7457
147.2565
147.8190
147.781
147.6744
147.3327
147.6142
147.5228
147.2441
147.7120
147.2502
147.8217
147.953
147.6672
147.3578
147.5927
147.5839
147.2640
147.7527
147.2313
147.8264
147.1142
147.6727
147.4406
147.5833
147.6572
147.2650
147.7781
147.2074
147.8169
147.1151
147.5823
147.4433
147.5404
147.6300
147.1514
147.7406
147.1938
147.8014
147.1660
147.5982
147.4670
147.4683
147.6875
147.1789
147.7777
147.2088
147.8171
147.2209
147.5917
147.5629
147.5079
147.7607
147.2138
147.8111
147.2090
147.8072
147.2411
147.5192
147.5522
147.4274
147.7205
147.1062
147.7559
147.1722
147.7492
147.2994
147.5018
147.5809
147.3702
147.7627
147.1148
147.7720
147.2362
147.7825
147.3521
147.4950
147.6581
147.4406
147.8305
147.1663
147.8036
147.2171
147.7343
147.3749
147.4358
147.6401
147.3102
147.7714
147.542
147.7245
147.2261
147.6786
147.4262
147.3984
147.6688
147.3026
147.8169
147.850
147.7331
147.3004
147.7335
147.4830
147.4160
147.7394
147.3283
147.8558
147.1341
147.7604
147.3095
147.6582
147.5115
147.3267
147.7068
147.2332
147.8017
147.478
147.6707
147.3353
147.6215
147.5464
147.2915
147.7231
147.2525
147.8438
147.898
147.6658
147.4010
147.6223
147.5993
147.2953
147.7819
147.2439
147.8498
147.1523
147.6834
147.4240
147.5540
147.6137
147.2084
147.7341
147.1864
147.7978
147.928
147.5797
147.4419
147.5411
147.6443
147.2088
147.7531
147.1757
147.8087
147.1574
147.5938
147.5077
147.5044
147.6978
147.2040
147.8070
147.2206
147.8360
147.2556
147.6083
147.5496
147.4884
147.7180
147.1433
147.7574
147.2056
147.8063
147.2229
147.5207
147.5558
147.4368
147.7396
147.1567
147.7806
147.1762
147.7772
147.3099
147.5148
147.6273
147.4467
147.7926
147.1485
147.8159
147.2670
147.8346
147.3927
147.5390
147.6593
147.4203
147.8030
147.1101
147.7601
147.2215
147.7423
147.3616
147.4359
147.6535
147.3323
147.7961
147.1132
147.7623
147.2382
147.7305
147.4458
147.4225
147.7104
147.4047
147.8632
147.1293
147.7930
147.3141
147.7662
147.5223
147.4476
147.7433
147.3168
147.8405
147.1029
147.7298
147.3055
147.6638
147.4963
147.3264
147.7257
147.2867
147.8360
147.1178
147.7252
147.3302
147.6702
147.5640
147.3276
147.7618
147.2996
147.8679
147.1308
147.7403
147.4157
147.6551
147.6365
147.3377
147.7910
147.2425
147.8380
147.1136
147.6495
147.4148
147.5863
147.6040
147.2117
147.7499
147.2485
147.8425
147.1488
147.6608
147.4391
147.5524
147.6582
147.2347
147.7838
147.2305
147.8456
147.1854
147.6544
147.5187
147.5515
147.7294
147.2605
147.8183
147.2199
147.8344
147.1947
147.5709
147.5172
147.5076
147.7010
147.1539
147.7718
147.1950
147.7931
147.2452
147.5735
147.5482
147.4380
147.7464
147.1584
147.7946
147.2311
147.8204
147.3088
147.5686
147.6329
147.5032
147.8184
147.2063
147.8288
147.2261
147.7960
147.3241
147.5059
147.6151
147.3802
147.7654
147.958
147.7621
147.2087
147.7356
147.3779
147.4713
147.6443
147.3600
147.8111
147.1130
147.7710
147.2836
147.7918
147.4320
147.4841
147.7167
147.3939
147.8596
147.1544
147.7982
147.2682
147.7191
147.4548
147.3955
147.6906
147.2925
147.8092
147.624
147.7249
147.2916
147.6800
147.5047
147.3735
147.7180
147.3132
147.8574
147.1143
147.7392
147.3583
147.6970
147.5614
147.3858
147.7895
147.3127
147.8850
147.1668
147.7624
147.3939
147.6588
147.5887
147.3133
147.7552
147.2705
147.8516
147.1015
147.6819
147.4167
147.6361
147.6215
147.3128
147.7836
147.2403
147.8616
147.1538
147.6933
147.4882
147.6279
147.6844
147.2999
147.8397
147.3134
147.9219
147.2367
147.7243
147.5173
147.6080
147.7020
147.2628
147.8058
147.2376
147.8488
147.1848
147.6388
147.5333
147.5376
147.7308
147.2420
147.8231
147.2383
147.8677
147.2607
147.6319
147.6019
147.5978
147.7930
147.2604
147.8775
147.2909
147.9021
147.3403
147.6573
147.6345
147.5132
147.7953
147.2019
147.8240
147.2471
147.8333
147.3219
147.5580
147.6420
147.4972
147.8224
147.2186
147.8400
147.2551
147.8488
147.3896
147.5819
147.7002
147.4820
147.8588
147.2075
147.8745
147.3187
147.8661
147.4726
147.5796
147.7253
147.4658
147.8674
147.1582
147.8050
147.2930
147.8112
147.4270
147.4752
147.7100
147.3890
147.8531
147.1625
147.8127
147.2856
147.7632
147.5034
147.4627
147.7639
147.4250
147.9013
147.1675
147.8323
147.3717
147.8209
147.5742
147.4893
147.7834
147.3513
147.8753
147.1444
147.7675
147.3417
147.6891
147.5348
147.3588
147.7563
147.3039
147.8610
147.1368
147.7407
147.3655
147.6951
147.6009
147.3538
147.7894
147.3339
147.8984
147.1614
147.7709
147.4531
147.6917
147.6670
147.3635
147.8215
147.2767
147.8740
147.1474
147.6863
147.4472
147.6215
147.6334
147.2432
147.7863
147.2806
147.8721
147.1794
147.6927
147.4692
147.5834
147.6932
147.2750
147.8215
147.2689
147.8806
147.2172
147.6927
147.5607
147.6140
147.7660
147.2878
147.8499
147.2749
147.8880
147.2259
147.6068
147.5478
147.5410
147.7316
147.2020
147.8088
147.2186
147.8232
147.2734
147.6069
147.5769
147.4873
147.7791
147.1948
147.8249
147.2800
147.8696
147.3214
147.6103
147.6530
147.5456
147.8387
147.2328
147.8498
147.2355
147.8126
147.3394
147.5305
147.6269
147.4066
147.7834
147.1175
147.7866
147.2365
147.7740
147.3876
147.4989
147.6568
147.4209
147.8383
147.1552
147.8061
147.2872
147.8015
147.4377
147.5188
147.7353
147.4143
147.8736
147.1749
147.8216
147.2882
147.7519
147.4659
147.4293
147.7108
147.3508
147.8375
147.836
147.7493
147.3150
147.7531
147.5095
147.4310
147.7383
147.3268
147.8701
147.1434
147.7814
147.3714
147.7283
147.5720
147.4215
147.8111
147.3684
147.9214
147.1999
147.8071
147.3965
147.7286
147.5916
147.3582
147.7745
147.2989
147.8690
147.1199
147.7234
147.4090
147.6323
147.6265
147.3391
147.7901
147.2594
147.8813
147.1651
147.7151
147.4842
147.6958
147.6817
147.3331
147.8466
147.3258
147.9252
147.2275
147.7452
147.5039
147.6121
147.6931
147.2673
147.8023
147.2428
147.8562
147.1734
147.6444
147.5181
147.5759
147.7208
147.2561
147.8228
147.2634
147.8902
147.2379
147.6674
147.5864
147.5744
147.7686
147.2630
147.8693
147.2821
147.8990
147.3219
147.6606
147.6091
147.5343
147.7797
147.1890
147.8125
147.2701
147.8636
147.2724
147.5628
147.6160
147.4991
147.7918
147.2036
147.8249
147.2188
147.8222
147.3598
147.5660
147.6735
147.4949
147.8397
147.1923
147.8594
147.3135
147.8806
147.4359
147.5881
147.6958
147.4527
147.8412
147.1764
147.8088
147.2467
147.7703
147.3989
147.4758
147.6902
147.3779
147.8357
147.1526
147.8052
147.2728
147.7771
147.4769
147.4667
147.7456
147.4414
147.8952
147.1744
147.8398
147.3434
147.7985
147.5543
147.4894
147.7730
147.3518
147.8721
147.1376
147.7687
147.3391
147.7173
147.5260
147.3726
147.7559
147.3533
147.8824
147.1630
147.7797
147.3583
147.7122
147.5876
147.3973
147.8020
147.3371
147.9058
147.1717
147.7903
147.4509
147.7382
147.6736
147.4056
147.8315
147.3302
147.9044
147.1605
147.7192
147.4409
147.6597
147.6286
147.3012
147.7963
147.2583
147.8648
147.1810
147.7130
147.4602
147.5920
147.6819
147.2875
147.8264
147.3101
147.9066
147.1996
147.7015
147.5391
147.6568
147.7567
147.3273
147.8541
147.2487
147.8649
147.2144
147.6491
147.5325
147.5288
147.7158
147.2021
147.8091
147.2294
147.8401
147.2705
147.6398
147.5657
147.5374
147.7758
147.2336
147.8441
147.2821
147.8803
147.3089
147.6477
147.6446
147.5391
147.8365
147.2568
147.8730
147.2574
147.8440
147.3361
147.5610
147.6456
147.5000
147.8115
147.1555
147.8184
147.2803
147.8464
147.3827
147.5720
147.6685
147.4400
147.8438
147.1868
147.8470
147.3152
147.8464
147.4436
147.5582
147.7426
147.5089
147.9128
147.2356
147.8721
147.3063
147.8193
147.4548
147.5031
147.7205
147.3879
147.8494
147.1304
147.7975
147.3010
147.7557
147.5035
147.4660
147.7407
147.3673
147.8804
147.1442
147.7982
147.3735
147.8105
147.5453
147.4673
147.7968
147.3954
147.9214
147.1973
147.8192
147.3639
147.7143
147.5612
147.3783
147.7656
147.3150
147.8631
147.970
147.7214
147.3872
147.6943
147.6008
147.3750
147.7807
147.2996
147.8888
147.1619
147.7518
147.4465
147.6730
147.6451
147.3601
147.8373
147.3154
147.9158
147.2080
147.7503
147.4689
147.6438
147.6580
147.2876
147.7885
147.2696
147.8697
147.1434
147.6612
147.4738
147.5863
147.6810
147.2674
147.8002
147.2167
147.8496
147.1907
147.6477
147.5428
147.5787
147.7293
147.2547
147.8414
147.2875
147.8998
147.2638
147.6717
147.5617
147.5364
147.7278
147.1991
147.7912
147.2023
147.8076
147.2213
147.5565
147.5600
147.4494
147.7443
147.1779
147.7965
147.1934
147.8017
147.3026
147.5405
147.6246
147.5115
147.8019
147.1790
147.8293
147.2545
147.8394
147.3860
147.5690
147.6493
147.4090
147.7877
147.1280
147.7700
147.2151
147.7500
147.3507
147.4488
147.6458
147.3775
147.8013
147.1271
147.7754
147.2366
147.7638
147.4178
147.4508
147.6988
147.3861
147.8389
147.1313
147.8015
147.2931
147.7531
147.5002
147.4541
147.7297
147.3302
147.8314
147.891
147.7239
147.2913
147.6995
147.4707
147.3366
147.7106
147.3169
147.8380
147.1172
147.7378
147.3009
147.6579
147.5401
147.3588
147.7596
147.2958
147.8544
147.1207
147.7439
147.3986
147.6778
147.6153
147.3551
147.7813
147.2751
147.8504
147.1085
147.6646
147.3865
147.6040
147.5724
147.2398
147.7404
147.2095
147.8082
147.1208
147.6475
147.4045
147.5341
147.6293
147.2236
147.7623
147.2252
147.8330
147.1461
147.6323
147.4846
147.5797
147.6973
147.2461
147.7851
147.1944
147.8025
147.1432
147.5587
147.4666
147.4535
147.6436
147.1219
147.7297
147.1382
147.7432
147.1896
147.5255
147.4934
147.4046
147.6948
147.1067
147.7423
147.1981
147.7915
147.2483
147.5177
147.5731
147.4541
147.7606
147.1660
147.7789
147.1586
147.7325
147.2682
147.4548
147.5615
147.3260
147.7088
147.375
147.7033
147.1474
147.6788
147.3236
147.4141
147.5844
147.2924
147.7456
147.385
147.7079
147.2288
147.7331
147.3756
147.3954
147.6528
147.3373
147.8065
147.989
147.7342
147.2044
147.6449
147.3913
147.3256
147.6279
147.2136
147.7397
146.9972
147.6471
147.2213
147.5829
147.4418
147.2840
147.6508
147.1902
147.7640
147.298
147.6476
147.3057
147.6306
147.4979
147.2680
147.7085
147.2406
147.8146
147.871
147.6654
147.3191
147.5335
147.5138
147.2042
147.6709
147.1370
147.7406
147.74
147.5571
147.3437
147.4748
147.5567
147.1756
147.6878
147.1213
147.7564
147.807
147.5628
147.4263
147.5291
147.6147
147.1646
147.7434
147.1802
147.7965
147.1543
147.5802
147.4423
147.4201
147.6202
147.1094
147.6925
147.985
147.7071
147.1132
147.4592
147.4580
147.3618
147.6450
147.738
147.6942
147.966
147.7062
147.1969
147.4447
147.5265
147.4134
147.6999
147.685
147.7242
147.1573
147.7389
147.2825
147.4629
147.5462
147.2991
147.6866
147.248
147.6637
147.1075
147.6382
147.2541
147.3348
147.5471
147.2445
147.6964
147.117
147.6602
147.1296
147.6292
147.3349
147.3215
147.6088
147.3035
147.7577
147.194
147.6867
147.2144
147.6707
147.4260
147.3481
147.6430
147.2103
147.7401
147.43
147.6298
147.2103
147.5573
147.4058
147.2282
147.6323
147.1650
147.7297
147.135
147.6214
147.2528
147.5478
147.4855
147.2199
147.6797
147.2289
147.7935
147.504
147.6474
147.3526
147.5841
147.5722
147.2558
147.7208
147.1614
147.7703
147.577
147.5814
147.3643
147.4855
147.5600
147.1445
147.6840
147.1171
147.7247
147.761
147.5378
147.3760
147.4480
147.5889
147.1201
147.6883
147.1553
147.7529
147.1001
147.5365
147.4420
147.4304
147.6419
147.1362
147.7094
147.969
147.6973
147.1257
147.4448
147.4333
147.3419
147.6065
147.216
147.6520
147.1034
147.6774
147.1733
147.4360
147.4649
147.3450
147.6569
147.620
147.6809
147.1322
147.6876
147.2408
147.4399
147.5451
147.3465
147.7142
147.889
147.7024
147.1434
147.6706
147.2688
147.3716
147.5384
147.3128
147.6921
147.132
147.6470
147.1485
147.6392
147.3229
147.3733
147.5692
147.2543
147.7179
147.516
147.6717
147.2152
147.6608
147.3899
147.3791
147.6450
147.3332
147.7850
147.1205
147.7141
147.2290
147.6329
147.4144
147.3320
147.6284
147.2384
147.7359
147.396
147.6408
147.2536
147.5907
147.4707
147.3278
147.6644
147.2666
147.7891
147.1089
147.6747
147.3350
147.6383
147.5380
147.3537
147.7333
147.2948
147.8282
147.1663
147.7031
147.3776
147.6235
147.5647
147.3117
147.7124
147.2762
147.8044
147.1184
147.6459
147.3954
147.5834
147.6028
147.3142
147.7405
147.2511
147.8200
147.1859
147.6649
147.4811
147.6614
147.6727
147.3536
147.8096
147.3283
147.8793
147.2632
147.7135
147.5100
147.6000
147.6842
147.3041
147.7796
147.3013
147.8478
147.2255
147.6435
147.5261
147.6067
147.7250
147.3346
147.8122
147.2989
147.8651
147.3057
147.6872
147.6110
147.6523
147.7943
147.3853
147.8899
147.3949
147.9391
147.3988
147.7492
147.6511
147.6264
147.8100
147.3543
147.8593
147.3759
147.9066
147.3731
147.6945
147.6647
147.6377
147.8463
147.3904
147.8965
147.3842
147.9249
147.4480
147.7298
147.7408
147.7143
147.9183
147.4531
147.9740
147.4733
147.9935
147.5409
147.7995
147.7850
147.6914
147.9328
147.4363
147.9456
147.4767
147.9847
147.5148
147.7557
147.7868
147.6750
147.9537
147.4699
147.9874
147.5056
148.182
147.5925
147.8204
147.8630
147.7443
148.227
147.5235
148.544
147.5937
148.897
147.6856
147.9010
147.9100
147.7608
148.366
147.5315
148.377
147.5706
148.506
147.6510
147.8312
147.9087
147.7871
148.708
147.5715
148.750
147.5990
148.826
147.7136
147.8765
147.9692
147.8538
148.1304
147.6223
148.1360
147.6769
148.1488
147.7935
147.9589
148.64
147.8636
148.1291
147.6228
148.1134
147.6560
148.1112
147.7519
147.8996
147.9932
147.8638
148.1510
147.6654
148.1529
147.6844
148.1481
147.8078
147.9490
148.442
147.9305
148.2100
147.7154
148.2105
147.7624
148.2148
147.8797
148.344
148.870
147.9459
148.2115
147.7136
148.1829
147.7411
148.1894
147.8381
147.9897
148.740
147.9518
148.2268
147.7504
148.2256
147.7818
148.2397
147.9006
148.618
148.1362
148.193
148.2846
147.8178
148.3002
147.8756
148.3245
147.9701
148.1601
148.1761
148.348
148.2878
147.8216
148.2804
147.8636
148.3162
147.9305
148.1219
148.1583
148.389
148.3061
147.8775
148.3364
147.9114
148.3685
147.9795
148.1699
148.2156
148.1379
148.3737
147.9647
148.4128
147.9765
148.4241
148.476
148.2674
148.2555
148.1943
148.3829
147.9611
148.3863
147.9636
148.4103
148.64
148.2467
148.2416
148.2015
148.4003
148.148
148.4356
148.217
148.4804
148.622
148.3322
148.3031
148.2836
148.4553
148.1068
148.5260
148.1203
148.5645
148.1376
148.4174
148.3361
148.3555
148.4730
148.1254
148.5078
148.1066
148.5491
148.946
148.4084
148.3216
148.3595
148.4834
148.1769
148.5520
148.1761
148.6200
148.1464
148.4673
148.3648
148.4564
148.5383
148.2813
148.6266
148.2420
148.6724
148.2252
148.5812
148.3909
148.4948
148.5276
148.2739
148.5973
148.2581
148.6767
148.1805
148.5484
148.3687
148.5168
148.5395
148.3684
148.6537
148.3002
148.7115
148.2425
148.6277
148.4190
148.6222
148.5842
148.4350
148.7076
148.4234
148.8118
148.3356
148.7206
148.4366
148.6848
148.5865
148.4739
148.6994
148.4179
148.7875
148.3209
148.7309
148.4299
148.6987
148.5936
148.5603
148.7401
148.4912
148.8363
148.3819
148.7919
148.4944
148.8210
148.6332
148.6437
148.7940
148.6172
148.9210
148.4864
148.8809
148.5244
148.8687
148.6177
148.6693
148.7635
148.6144
148.8802
148.4669
148.8647
148.5127
148.8720
148.6123
148.7601
148.7900
148.6756
148.9062
148.5447
148.9278
148.5813
148.9613
148.6331
148.8415
148.8339
148.7899
148.9652
148.6447
148.9969
148.6235
148.9985
148.6221
148.8473
148.7916
148.8136
148.9253
148.6231
148.9605
148.6423
149.274
148.6339
148.9137
148.7918
148.8877
148.9550
148.7198
149.181
148.7270
149.1025
148.6770
149.23
148.8342
149.14
149.4
148.8303
149.703
148.7819
149.1230
148.6873
149.131
148.7862
149.1
148.9327
148.8318
149.437
148.8043
149.1300
148.7259
149.832
148.8019
149.748
148.9517
148.9258
149.869
148.9087
149.1962
148.7994
149.1652
148.8721
149.1871
148.9882
149.365
149.1128
148.9782
149.2033
148.8269
149.1631
148.8462
149.1842
148.9111
149.382
149.760
149.174
149.2054
148.8881
149.2156
148.8984
149.2572
148.9377
149.1317
149.1045
149.1215
149.2441
148.9810
149.2898
148.9940
149.3484
148.9912
149.2441
149.1174
149.1900
149.2337
149.295
149.2785
148.9940
149.3329
148.9441
149.2450
149.784
149.2324
149.2217
149.1110
149.3143
149.675
149.3872
149.191
149.3402
149.1097
149.3330
149.2369
149.2121
149.3648
149.1876
149.4556
149.978
149.4185
149.1262
149.4015
149.2111
149.2408
149.3150
149.1983
149.4152
149.726
149.3940
149.1112
149.4203
149.1789
149.3119
149.3151
149.2663
149.4335
149.1592
149.4546
149.1718
149.4948
149.1887
149.4102
149.3475
149.3846
149.4719
149.2583
149.5054
149.2262
149.5318
149.1797
149.4196
149.2775
149.3970
149.4004
149.2510
149.4652
149.2384
149.5342
149.1917
149.4778
149.2635
149.4596
149.3990
149.3487
149.5035
149.3217
149.5815
149.2499
149.5576
149.3153
149.5704
149.4191
149.4490
149.5157
149.3933
149.5873
149.2741
149.5520
149.2767
149.5580
149.3205
149.4432
149.4639
149.4214
149.5710
149.3312
149.5975
149.3195
149.6174
149.3353
149.5302
149.4735
149.5251
149.5941
149.4097
149.6424
149.4053
149.6945
149.3828
149.6238
149.4578
149.5727
149.5552
149.4480
149.6121
149.3928
149.6500
149.3209
149.5938
149.4004
149.5982
149.5162
149.4922
149.6020
149.4516
149.6815
149.3863
149.6579
149.4273
149.6713
149.5019
149.5826
149.6320
149.5619
149.7271
149.4662
149.7180
149.4559
149.7166
149.4673
149.6012
149.5621
149.5519
149.6474
149.4414
149.6765
149.4438
149.7104
149.4380
149.6462
149.5338
149.6217
149.6510
149.5171
149.7018
149.5028
149.7587
149.4721
149.7189
149.5494
149.7108
149.6557
149.6056
149.7215
149.5574
149.7643
149.4718
149.7030
149.4826
149.6921
149.5488
149.5773
149.6465
149.5546
149.7291
149.4872
149.7271
149.4895
149.7314
149.5319
149.6468
149.6473
149.6348
149.7441
149.5466
149.7684
149.5538
149.8011
149.5535
149.7325
149.6312
149.6779
149.7037
149.5618
149.7254
149.5231
149.7523
149.4701
149.6786
149.5391
149.6682
149.6421
149.5869
149.7066
149.5473
149.7580
149.5008
149.7252
149.5415
149.7286
149.6178
149.6387
149.7094
149.6195
149.7832
149.5535
149.7664
149.5388
149.7393
149.5524
149.6369
149.6293
149.5852
149.6854
149.4822
149.6855
149.4856
149.7088
149.4952
149.6430
149.5742
149.6065
149.6604
149.5280
149.6975
149.5148
149.7292
149.4865
149.6740
149.5563
149.6697
149.6549
149.5789
149.6898
149.5252
149.7061
149.4648
149.6495
149.4728
149.6140
149.5242
149.5088
149.5908
149.4908
149.6511
149.4333
149.6273
149.4314
149.6158
149.4812
149.5415
149.5671
149.5140
149.6295
149.4431
149.6332
149.4498
149.6452
149.4586
149.5679
149.5227
149.5318
149.6065
149.4825
149.6519
149.4893
149.6956
149.4940
149.6636
149.5897
149.6770
149.6988
149.6255
149.7563
149.6139
149.8104
149.6041
149.7890
149.6634
149.8045
149.7579
149.7435
149.8367
149.7386
149.9033
149.7000
149.8874
149.7093
149.8689
149.7486
149.7781
149.8063
149.7355
149.8560
149.6583
149.8443
149.6726
149.8621
149.7054
149.8032
149.7867
149.7769
149.8653
149.7154
149.8844
149.7121
149.9089
149.7119
149.8622
149.8010
149.8596
149.8930
149.7851
149.9170
149.7462
149.9262
149.7038
149.8599
149.7295
149.8256
149.7933
149.7361
149.8458
149.7156
149.8873
149.6744
149.8596
149.7003
149.8530
149.7750
149.7760
149.8420
149.7564
149.9035
149.7032
149.8952
149.7244
149.9043
149.7658
149.8363
149.8378
149.7861
149.8793
149.6957
149.8596
149.6692
149.8550
149.6598
149.7733
149.7427
149.7589
149.8245
149.6888
149.8420
149.6635
149.8621
149.6603
149.8151
149.7301
149.8031
149.8127
149.7276
149.8603
149.7170
149.9025
149.6842
149.8560
149.7067
149.8272
149.7703
149.7262
149.8039
149.6769
149.8341
149.6069
149.7923
149.6333
149.7935
149.7010
149.7299
149.7733
149.6960
149.8351
149.6433
149.8305
149.6580
149.8438
149.6882
149.7783
149.7832
149.7678
149.8626
149.6978
149.8641
149.6725
149.8582
149.6608
149.7817
149.7180
149.7374
149.7755
149.6454
149.8009
149.6411
149.8337
149.6242
149.7853
149.6759
149.7688
149.7694
149.6962
149.8188
149.6819
149.8642
149.6474
149.8348
149.6955
149.8348
149.7740
149.7613
149.8303
149.7132
149.8573
149.6405
149.8144
149.6345
149.7933
149.6625
149.6977
149.7397
149.6836
149.8105
149.6225
149.8011
149.6134
149.8066
149.6445
149.7377
149.7273
149.7147
149.7994
149.6499
149.8238
149.6526
149.8473
149.6462
149.7823
149.7045
149.7437
149.7657
149.6422
149.7707
149.5990
149.7843
149.5555
149.7186
149.6099
149.7083
149.7004
149.6357
149.7442
149.6012
149.7826
149.5689
149.7522
149.6094
149.7488
149.6812
149.6768
149.7553
149.6619
149.8155
149.6053
149.7888
149.6061
149.7715
149.6372
149.6740
149.6920
149.6247
149.7387
149.5438
149.7257
149.5484
149.7360
149.5741
149.6743
149.6538
149.6448
149.7309
149.5787
149.7472
149.5721
149.7678
149.5682
149.7169
149.6573
149.7093
149.7441
149.6287
149.7628
149.5911
149.7726
149.5473
149.6978
149.5736
149.6633
149.6411
149.5638
149.6804
149.5439
149.7242
149.5126
149.6954
149.5408
149.6808
149.6203
149.6098
149.6894
149.5833
149.7400
149.5329
149.7282
149.5652
149.7374
149.6194
149.6614
149.6832
149.6141
149.7269
149.5293
149.6957
149.5027
149.6840
149.5091
149.5988
149.5955
149.5800
149.6707
149.5121
149.6802
149.4959
149.6934
149.5030
149.6386
149.5870
149.6208
149.6658
149.5478
149.7021
149.5421
149.7369
149.5228
149.6806
149.5617
149.6434
149.6274
149.5404
149.6467
149.4925
149.6680
149.4353
149.6107
149.4727
149.6009
149.5549
149.5280
149.6114
149.4922
149.6596
149.4469
149.6315
149.4692
149.6294
149.5303
149.5655
149.6204
149.5478
149.6816
149.4827
149.6646
149.4724
149.6447
149.4855
149.5521
149.5489
149.5008
149.5956
149.4108
149.5916
149.4186
149.6116
149.4328
149.5509
149.5115
149.5254
149.5951
149.4539
149.6145
149.4459
149.6459
149.4401
149.5964
149.5182
149.5829
149.6052
149.5071
149.6361
149.4691
149.6486
149.4239
149.5812
149.4456
149.5437
149.5079
149.4494
149.5609
149.4291
149.6052
149.3921
149.5781
149.4199
149.5664
149.4967
149.4909
149.5655
149.4693
149.6231
149.4121
149.6070
149.4439
149.6214
149.4990
149.5439
149.5621
149.4922
149.6045
149.4104
149.5781
149.3869
149.5694
149.3926
149.4810
149.4776
149.4597
149.5532
149.3949
149.5660
149.3814
149.5809
149.3920
149.5227
149.4769
149.5093
149.5588
149.4385
149.5957
149.4341
149.6288
149.4164
149.5746
149.4615
149.5318
149.5260
149.4335
149.5488
149.3885
149.5685
149.3372
149.5148
149.3887
149.5093
149.4747
149.4369
149.5309
149.4068
149.5794
149.3615
149.5450
149.3906
149.5508
149.4649
149.4794
149.5415
149.4559
149.6011
149.3965
149.5795
149.3897
149.5588
149.4141
149.4625
149.4735
149.4082
149.5167
149.3228
149.5081
149.3300
149.5185
149.3546
149.4602
149.4395
149.4304
149.5153
149.3616
149.5309
149.3554
149.5529
149.3558
149.5026
149.4478
149.4903
149.5323
149.4110
149.5514
149.3720
149.5568
149.3334
149.4826
149.3710
149.4461
149.4381
149.3493
149.4791
149.3365
149.5216
149.3033
149.4811
149.3399
149.4682
149.4293
149.3897
149.4875
149.3697
149.5419
149.3267
149.5185
149.3621
149.5225
149.4354
149.4448
149.4944
149.3978
149.5324
149.3214
149.4941
149.3047
149.4747
149.3316
149.3864
149.4163
149.3632
149.4839
149.3030
149.4851
149.2969
149.4916
149.3259
149.4275
149.4190
149.4097
149.4943
149.3442
149.5209
149.3481
149.5448
149.3472
149.4848
149.4126
149.4372
149.4706
149.3413
149.4806
149.3027
149.4916
149.2666
149.4271
149.3349
149.4130
149.4232
149.3425
149.4684
149.3151
149.5071
149.2900
149.4686
149.3421
149.4661
149.4254
149.3884
149.4920
149.3774
149.5485
149.3298
149.5113
149.3395
149.4878
149.3933
149.3885
149.4365
149.3358
149.4756
149.2558
149.4435
149.2761
149.4529
149.3293
149.3820
149.4057
149.3474
149.4759
149.2904
149.4746
149.2977
149.4895
149.3228
149.4248
149.4185
149.4055
149.4955
149.3355
149.5018
149.3104
149.4973
149.2947
149.4130
149.3520
149.3687
149.4135
149.2738
149.4322
149.2654
149.4613
149.2573
149.4153
149.3183
149.3913
149.4104
149.3216
149.4564
149.3037
149.4936
149.2770
149.4617
149.3405
149.4590
149.4291
149.3799
149.4758
149.3357
149.4990
149.2743
149.4465
149.2834
149.4198
149.3363
149.3242
149.4034
149.3059
149.4629
149.2553
149.4438
149.2687
149.4440
149.3323
149.3715
149.4150
149.3542
149.4836
149.2928
149.4835
149.3122
149.5045
149.3476
149.4343
149.4194
149.3884
149.4736
149.2979
149.4587
149.2699
149.4624
149.2651
149.3863
149.3537
149.3736
149.4390
149.3051
149.4634
149.2846
149.4874
149.2876
149.4400
149.3633
149.4281
149.4510
149.3596
149.5035
149.3522
149.5450
149.3298
149.5011
149.3654
149.4676
149.4334
149.3722
149.4678
149.3193
149.4874
149.2567
149.4422
149.2976
149.4371
149.3767
149.3696
149.4429
149.3332
149.4953
149.2879
149.4771
149.3137
149.4809
149.3673
149.4095
149.4581
149.3966
149.5304
149.3356
149.5162
149.3229
149.5006
149.3371
149.4089
149.4018
149.3621
149.4535
149.2722
149.4528
149.2795
149.4735
149.2918
149.4098
149.3680
149.3819
149.4517
149.3096
149.4716
149.3021
149.5017
149.2960
149.4506
149.3774
149.4400
149.4665
149.3586
149.4905
149.3165
149.5000
149.2782
149.4356
149.3089
149.3997
149.3752
149.3010
149.4194
149.2829
149.4654
149.2497
149.4303
149.2787
149.4171
149.3648
149.3439
149.4310
149.3196
149.4831
149.2738
149.4713
149.3106
149.4748
149.3724
149.3994
149.4378
149.3468
149.4712
149.2661
149.4409
149.2511
149.4223
149.2675
149.3390
149.3611
149.3188
149.4299
149.2546
149.4333
149.2440
149.4384
149.2650
149.3769
149.3597
149.3570
149.4355
149.2860
149.4610
149.2902
149.4896
149.2892
149.4278
149.3517
149.3881
149.4167
149.2906
149.4259
149.2495
149.4379
149.2100
149.3737
149.2785
149.3648
149.3709
149.2902
149.4144
149.2666
149.4578
149.2385
149.4170
149.2914
149.4217
149.3796
149.3467
149.4487
149.3371
149.5083
149.2906
149.4721
149.2964
149.4467
149.3519
149.3523
149.4024
149.3015
149.4421
149.2261
149.4152
149.2458
149.4235
149.3001
149.3561
149.3783
149.3223
149.4484
149.2631
149.4483
149.2725
149.4643
149.2984
149.4018
149.3965
149.3863
149.4771
149.3176
149.4842
149.2908
149.4792
149.2799
149.4020
149.3410
149.3569
149.3992
149.2616
149.4203
149.2526
149.4500
149.2480
149.4082
149.3088
149.3789
149.3960
149.3078
149.4436
149.2922
149.4825
149.2655
149.4491
149.3264
149.4442
149.4160
149.3675
149.4620
149.3186
149.4809
149.2567
149.4295
149.2676
149.4042
149.3202
149.3058
149.3858
149.2846
149.4424
149.2373
149.4275
149.2525
149.4242
149.3131
149.3518
149.3959
149.3317
149.4608
149.2660
149.4575
149.2857
149.4771
149.3211
149.4029
149.3889
149.3523
149.4401
149.2598
149.4221
149.2314
149.4205
149.2222
149.3382
149.3099
149.3235
149.3927
149.2495
149.4086
149.2305
149.4324
149.2289
149.3745
149.3063
149.3659
149.3962
149.2918
149.4378
149.2834
149.4784
149.2627
149.4256
149.2968
149.3882
149.3671
149.2915
149.3949
149.2414
149.4174
149.1872
149.3681
149.2306
149.3638
149.3186
149.2908
149.3755
149.2577
149.4295
149.2178
149.4068
149.2482
149.4107
149.3170
149.3410
149.4034
149.3234
149.4680
149.2685
149.4517
149.2603
149.4304
149.2836
149.3395
149.3499
149.2885
149.3963
149.2056
149.3888
149.2093
149.3991
149.2358
149.3407
149.3184
149.3049
149.3946
149.2377
149.4083
149.2319
149.4297
149.2357
149.3793
149.3297
149.3637
149.4122
149.2869
149.4349
149.2536
149.4392
149.2206
149.3676
149.2624
149.3223
149.3234
149.2261
149.3643
149.2119
149.4013
149.1902
149.3673
149.2355
149.3468
149.3236
149.2698
149.3822
149.2544
149.4317
149.2135
149.4065
149.2646
149.4160
149.3475
149.3336
149.3992
149.2856
149.4321
149.2117
149.3905
149.2156
149.3775
149.2535
149.2817
149.3315
149.2653
149.4001
149.2037
149.3883
149.2073
149.3968
149.2532
149.3349
149.3461
149.3131
149.4163
149.2396
149.4238
149.2542
149.4529
149.2769
149.3949
149.3483
149.3448
149.4006
149.2556
149.4059
149.2158
149.4045
149.1921
149.3341
149.2717
149.3221
149.3598
149.2519
149.3940
149.2264
149.4250
149.2222
149.3874
149.2837
149.3750
149.3690
149.3055
149.4314
149.2926
149.4760
149.2646
149.4413
149.2866
149.4066
149.3500
149.3188
149.3991
149.2734
149.4315
149.2112
149.3971
149.2472
149.4039
149.3151
149.3296
149.3818
149.2940
149.4431
149.2508
149.4369
149.2724
149.4487
149.3120
149.3810
149.4074
149.3732
149.4886
149.3079
149.4808
149.2924
149.4722
149.2927
149.3838
149.3571
149.3440
149.4179
149.2581
149.4279
149.2609
149.4538
149.2713
149.4090
149.3435
149.3790
149.4281
149.3226
149.4731
149.3079
149.5001
149.2996
149.4685
149.3759
149.4666
149.4654
149.3948
149.5082
149.3435
149.5154
149.3054
149.4716
149.3266
149.4347
149.3844
149.3572
149.4583
149.3427
149.5070
149.3024
149.4857
149.3267
149.4830
149.4026
149.4352
149.4910
149.4054
149.5446
149.3485
149.5384
149.3832
149.5641
149.4304
149.4945
149.5004
149.4506
149.5514
149.3838
149.5463
149.3566
149.5340
149.3607
149.4727
149.4526
149.4506
149.5270
149.3981
149.5595
149.3819
149.5744
149.3920
149.5356
149.4709
149.5246
149.5552
149.4596
149.6065
149.4696
149.6573
149.4541
149.6129
149.4858
149.5826
149.5566
149.5111
149.6011
149.4530
149.6164
149.4087
149.5872
149.4485
149.5849
149.5275
149.5352
149.6053
149.5018
149.6579
149.4775
149.6609
149.5044
149.6678
149.5528
149.6190
149.6550
149.6178
149.7342
149.5585
149.7303
149.5543
149.7311
149.5735
149.6698
149.6328
149.6119
149.6804
149.5450
149.7097
149.5466
149.7300
149.5507
149.6902
149.6206
149.6760
149.7117
149.6221
149.7592
149.6139
149.7973
149.6071
149.7775
149.6765
149.7857
149.7579
149.7119
149.8020
149.6668
149.8234
149.6242
149.7868
149.6315
149.7632
149.6793
149.6917
149.7571
149.6816
149.8198
149.6357
149.8121
149.6480
149.8201
149.7046
149.7837
149.7938
149.7486
149.8524
149.7087
149.8856
149.7375
149.9187
149.7489
149.8618
149.8073
149.8228
149.8713
149.7720
149.9018
149.7223
149.8888
149.6993
149.8503
149.7681
149.8482
149.8491
149.7793
149.8930
149.7645
149.9425
149.7697
149.9360
149.7998
149.9211
149.8689
149.8842
149.9644
149.8865
150.276
149.8384
150.44
149.8414
149.9956
149.8780
149.9298
149.9387
149.8801
149.9820
149.8352
150.41
149.8527
150.223
149.8656
149.9717
149.9365
149.9630
150.272
149.9299
150.702
149.9167
150.907
149.9136
150.676
149.9870
150.762
150.763
150.137
150.1154
149.9850
150.1398
149.9610
150.1096
149.9652
150.777
150.56
150.86
150.815
150.162
150.1482
149.9870
150.1487
149.9922
150.1512
150.397
150.1151
150.1260
150.1086
150.1996
150.719
150.2299
150.878
150.2591
150.1060
150.2252
150.1590
150.1935
150.2180
150.1223
150.2374
150.988
150.2611
150.832
150.2328
150.1347
150.2301
150.2088
150.1905
150.2721
150.1842
150.3277
150.1684
150.3198
150.2012
150.3393
150.2558
150.3206
150.3483
150.3251
150.4096
150.2909
150.4187
150.2951
150.4270
150.2984
150.3669
150.3222
150.3534
150.3725
150.3338
150.4157
150.3605
150.4436
150.3679
150.4263
150.4148
150.4539
150.4733
150.4320
150.4215
150.4255
150.4274
150.4237
150.4232
150.4330
150.4196
150.3903
150.3499
150.3349
150.3119
150.2661
150.2038
150.1505
150.1172
150.802
150.196
149.9657
149.9273
149.8776
149.8216
149.7498
149.7005
149.6569
149.6052
149.5158
149.4292
149.3737
149.3092
149.2469
149.1667
149.978
149.285
148.9485
148.8460
148.7480
148.6757
148.5927
148.4886
148.3664
148.2631
148.1791
148.989
147.9969
147.9017
147.8208
147.7315
147.6396
147.5312
147.4452
147.3703
147.2919
147.1845
147.714
146.9889
146.9069
146.8268
146.7237
146.6346
146.5509
146.4572
146.3538
146.2331
146.1450
146.545
145.9552
145.8242
145.6984
145.6039
145.5073
145.4192
145.3041
145.2073
145.1178
145.165
144.9080
144.7962
144.7148
144.6349
144.5447
144.4166
144.2997
144.2183
144.1269
144.396
143.9283
143.8342
143.7423
143.6390
143.5235
143.3954
143.3013
143.2063
143.1001
142.9590
142.8288
142.7293
142.6255
142.5330
142.4097
142.3036
142.2069
142.1001
141.9941
141.8730
141.7789
141.6935
141.5980
141.4711
141.3388
141.2428
141.1541
141.627
140.9481
140.8404
140.7380
140.6335
140.5240
140.3881
140.2664
140.1713
140.626
139.9365
139.7875
139.6575
139.5590
139.4502
139.3428
139.2124
139.1009
138.9974
138.8814
138.7621
138.6344
138.5370
138.4469
138.3469
138.2131
138.752
137.9724
137.8796
137.7781
137.6560
137.5384
137.4298
137.3215
137.2057
137.662
136.9290
136.8296
136.7206
136.5973
136.4409
136.2982
136.1884
136.765
135.9731
135.8347
135.7110
135.6000
135.4874
135.3697
135.2338
135.1084
135.130
134.9157
134.8044
134.6522
134.5166
134.4184
134.3134
134.2100
134.774
133.9544
133.8406
133.7258
133.6027
133.4572
133.3142
133.2113
133.1002
132.9782
132.8176
132.6649
132.5423
132.4314
132.3188
132.1883
132.524
131.9319
131.8201
131.6967
131.5688
131.4279
131.3198
131.2245
131.1149
130.9820
130.8238
130.6955
130.5997
130.4844
130.3752
130.2323
130.1111
129.9924
129.8700
129.7436
129.5905
129.4463
129.3385
129.2236
129.967
128.9285
128.7725
128.6456
128.5354
128.4150
128.2910
128.1446
128.241
127.9109
127.7859
127.6613
127.5131
127.3889
127.2905
127.1858
127.660
126.9067
126.7596
126.6486
126.5457
126.4279
126.3024
126.1607
126.428
125.9202
125.7915
125.6596
125.4965
125.3556
125.2521
125.1357
125.49
124.8323
124.6745
124.5432
124.4350
124.3118
124.1940
124.366
123.9111
123.7957
123.6742
123.5443
123.4021
123.2631
123.1573
123.567
122.9427
122.8035
122.6340
122.4998
122.4012
122.2871
122.1692
122.272
121.8904
121.7677
121.6420
121.5099
121.3786
121.2137
121.687
120.9647
120.8451
120.7138
120.5478
120.3816
120.2435
120.1360
120.74
119.8910
119.7345
119.5951
119.4727
119.3550
119.2229
119.918
118.9353
118.8048
118.7084
118.6009
118.4780
118.3194
118.1506
118.173
117.9207
117.8031
117.6823
117.5348
117.3919
117.2670
117.1355
117.9
116.8658
116.7016
116.5441
116.4339
116.3255
116.1972
116.485
115.8645
115.7119
115.5949
115.4815
115.3527
115.2343
115.717
114.9437
114.8212
114.7027
114.5724
114.4427
114.2824
114.1558
114.569
113.9515
113.8331
113.6864
113.5066
113.3662
113.2649
113.1545
113.258
112.9032
112.7440
112.6147
112.4811
112.3463
112.2069
112.681
111.8972
111.7548
111.6523
111.5367
111.4085
111.2550
111.698
110.9216
110.8046
110.6929
110.5632
110.4551
110.2977
110.1689
110.532
109.9360
109.8030
109.6783
109.5264
109.3786
109.2766
109.1763
109.633
108.9397
108.7720
108.6067
108.4819
108.3861
108.2651
108.1322
108.11
107.8348
107.7054
107.5776
107.4453
107.3060
107.1718
107.24
106.8520
106.7482
106.6432
106.5091
106.3663
106.1826
106.204
105.8932
105.7965
105.6785
105.5528
105.4379
105.2740
105.1529
105.420
104.9244
104.7962
104.6705
104.5215
104.3700
104.2636
104.1679
104.597
103.9421
103.7974
103.6109
103.4744
103.3722
103.2713
103.1348
103.130
102.8682
102.7100
102.5916
102.4682
102.3346
102.1931
102.626
101.8965
101.7425
101.6399
101.5449
101.4181
101.2869
101.1293
100.9486
100.8174
100.7159
100.6175
100.4893
100.3827
100.2506
100.944
99.9905
99.8821
99.7644
99.6339
99.5149
99.3693
99.2152
99.1073
99.248
98.9181
98.7998
98.6719
98.4870
98.3267
98.2134
98.1241
98.76
97.8654
97.7531
97.5938
97.4502
97.3432
97.2229
97.902
96.9560
96.8325
96.6702
96.5147
96.4102
96.3248
96.2094
96.859
95.9586
95.7729
95.6243
95.5132
95.4323
95.3289
95.1970
95.986
94.9567
94.8118
94.7175
94.6171
94.4938
94.3611
94.2422
94.1122
93.9497
93.8361
93.7575
93.6599
93.5441
93.4240
93.2789
93.899
92.9576
92.8591
92.7708
92.6496
92.5151
92.4145
92.2614
92.1173
92.168
91.9077
91.7779
91.6506
91.5317
91.3967
91.2265
91.1046
91.358
90.9514
90.8318
90.7141
90.5844
90.4049
90.2684
90.1683
90.925
89.9927
89.8639
89.7712
89.6575
89.4941
89.3939
89.3088
89.2001
89.771
88.9488
88.8499
88.7087
88.5547
88.4568
88.3883
88.2896
88.1707
88.599
87.9370
87.7536
87.6139
87.5232
87.4510
87.3477
87.2106
87.1016
86.9974
86.8332
86.7175
86.6309
86.5193
86.3934
86.2743
86.1678
86.527
85.8899
85.7651
85.6948
85.6291
85.5111
85.3943
85.2887
85.1447
84.9825
84.8782
84.8017
84.7314
84.6236
84.5014
84.4218
84.3173
84.1553
84.566
83.9825
83.8894
83.7718
83.6487
83.5446
83.4417
83.2858
83.1641
83.894
83.258
82.9241
82.8145
82.7156
82.5958
82.4097
82.2752
82.1956
82.1312
82.332
81.9048
81.7905
81.7208
81.5885
81.4335
81.3482
81.2708
81.1535
81.331
80.9212
80.8260
80.7169
80.5490
80.4225
80.3639
80.3176
80.2170
80.978
79.9978
79.8958
79.7267
79.5890
79.5092
79.4468
79.3737
79.2633
79.1529
79.828
78.9934
78.8321
78.7275
78.6666
78.5907
78.4747
78.3535
78.2509
78.1733
78.486
77.8954
77.8062
77.7582
77.6979
77.5829
77.4711
77.3811
77.2919
77.1183
76.9692
76.8904
76.8326
76.7640
76.6521
76.5261
76.4420
76.3877
76.2385
76.1008
76.377
75.9753
75.8586
75.7330
75.6367
75.5515
75.4757
75.3256
75.1812
75.1069
75.795
75.269
74.9142
74.8083
74.7262
74.6327
74.4658
74.3389
74.2750
74.2263
74.1644
74.598
73.9453
73.8726
73.8407
73.7069
73.5612
73.4988
73.4582
73.3840
73.2650
73.1531
73.585
72.9957
72.8949
72.7391
72.6399
72.5955
72.5686
72.4839
72.3722
72.2807
72.2109
72.1084
71.9276
71.8011
71.7529
71.7161
71.6566
71.5448
71.4237
71.3365
71.3021
71.1978
71.339
70.9534
70.9207
70.8635
70.7472
70.6362
70.5451
70.4762
70.4123
70.2711
70.1364
70.723
70.538
70.242
69.9166
69.8043
69.7328
69.6841
69.5798
69.4109
69.3138
69.2730
69.2390
69.1900
69.861
68.9775
68.9139
68.8978
68.8140
68.6503
68.5671
68.5448
68.5027
68.4088
68.2958
68.1973
68.1288
68.884
67.9943
67.8359
67.7376
67.7124
67.7040
67.6403
67.5291
67.4356
67.3752
67.3287
67.1969
67.188
66.9338
66.9090
66.8872
66.8326
66.7215
66.6098
66.5376
66.5155
66.4462
66.2811
66.1722
66.1552
66.1308
66.519
65.9216
65.8226
65.7588
65.7148
65.6613
65.5223
65.3866
65.3327
65.3318
65.3287
65.2386
65.1254
65.507
65.122
64.9694
64.8361
64.6809
64.6106
64.5990
64.5842
64.5441
64.4442
64.3445
64.2827
64.2810
64.2469
64.849
63.9628
63.9497
63.9431
63.9016
63.7928
63.6844
63.6102
63.5632
63.5384
63.4515
63.2944
63.2048
63.1963
63.2078
63.1828
63.724
62.9707
62.9155
62.8842
62.8438
62.6880
62.5274
62.4622
62.4607
62.4546
62.4067
62.3017
62.1966
62.1314
62.1163
62.1135
61.9820
61.8288
61.7822
61.7922
61.7745
61.6861
61.5592
61.4744
61.4315
61.4065
61.3772
61.2428
61.981
61.492
61.630
61.855
61.477
60.9346
60.8445
60.8125
60.8007
60.7575
60.6065
60.4630
60.4226
60.4274
60.4319
60.4098
60.3200
60.2297
60.1718
60.1724
60.1955
60.966
59.9330
59.8622
59.8878
59.8979
59.8538
59.7322
59.6271
59.5653
59.5412
59.5369
59.4856
59.3348
59.2217
59.2127
59.2455
59.2596
59.1908
59.832
59.96
58.9818
58.9736
58.9371
58.7789
58.6214
58.5749
58.5935
58.6016
58.5829
58.4869
58.3878
58.3269
58.3130
58.3308
58.2879
58.1247
58.37
58.35
58.359
58.194
57.9245
57.7942
57.7237
57.7016
57.6871
57.6731
57.5868
57.4417
57.3576
57.3671
57.4106
57.4360
57.3641
57.2556
57.1951
57.1876
57.1961
57.1651
57.197
56.8776
56.8418
56.8707
56.8945
56.8889
56.8127
56.7214
56.6698
56.6603
56.6989
56.7009
56.5572
56.4154
56.3937
56.4414
56.4603
56.4211
56.3005
56.1997
56.1609
56.1538
56.1538
56.1384
56.94
55.8784
55.8407
55.8842
55.9178
55.9151
55.8208
55.7323
55.6958
55.6946
55.6977
55.6595
55.4854
55.3313
55.2964
55.3372
55.3701
55.3712
55.2931
55.1907
55.1199
55.1000
55.1349
55.1639
55.562
54.8896
54.8259
54.8730
54.9167
54.8978
54.7961
54.6667
54.6110
54.6095
54.6153
54.6213
54.5627
54.4182
54.3226
54.3324
54.3920
54.4418
54.4375
54.3302
54.2390
54.2231
54.2470
54.2660
54.2266
54.664
53.9429
53.9331
53.9737
54.61
54.226
53.9702
53.8850
53.8298
53.8212
53.8659
53.9196
53.8453
53.6760
53.5920
53.6361
53.7009
53.7100
53.6579
53.5397
53.4604
53.4354
53.4443
53.4638
53.4681
53.3454
53.2150
53.1914
53.2419
53.2949
53.3218
53.2594
53.1571
53.1063
53.1139
53.1378
53.1509
53.639
52.8824
52.7820
52.8031
52.8627
52.8922
52.8856
52.7998
52.7131
52.6742
52.6707
52.7029
52.7465
52.6637
52.5032
52.4321
52.4855
52.5574
52.5698
52.5119
52.3815
52.3084
52.2943
52.3077
52.3260
52.3393
52.2504
52.1103
52.607
52.1052
52.1768
52.2319
52.2140
52.1046
52.395
52.473
52.832
52.1137
52.937
51.9522
51.8228
51.8079
51.8675
51.9182
51.9410
51.9169
51.8301
51.7680
51.7571
51.7963
51.8765
51.8977
51.7526
51.6197
51.6248
51.7167
51.7713
51.7734
51.6982
51.5803
51.5245
51.5252
51.5507
51.5863
51.5976
51.4781
51.3517
51.3314
51.3983
51.4776
51.5156
51.4773
51.3827
51.3308
51.3405
51.3722
51.3979
51.3801
51.2329
51.925
51.752
51.1480
51.1972
51.2194
51.1841
51.927
51.391
51.286
51.513
51.1113
51.1502
51.430
50.8911
50.8584
50.9391
51.127
51.296
50.9674
50.8418
50.7831
50.7980
50.8263
50.8577
50.8810
50.8097
50.6733
50.6201
50.6690
50.7587
50.8352
50.8536
50.7597
50.6848
50.6826
50.7319
50.7828
50.7984
50.7160
50.5619
50.5089
50.5565
50.6309
50.6769
50.7137
50.6640
50.5888
50.5579
50.5766
50.6410
50.7128
50.6941
50.5417
50.4451
50.4898
50.5925
50.6554
50.6546
50.5699
50.4699
50.4391
50.4613
50.5060
50.5532
50.5633
50.4376
50.3220
50.3256
50.4003
50.4772
50.5277
50.5064
50.4090
50.3690
50.3900
50.4375
50.4821
50.4742
50.3353
50.1904
50.1724
50.2452
50.3190
50.3574
50.3578
50.2757
50.2056
50.1919
50.2174
50.2770
50.3440
50.2942
50.1368
50.617
50.1242
50.2238
50.2735
50.2630
50.1657
50.746
50.600
50.966
50.1330
50.1703
50.1696
50.595
49.9577
49.9727
50.635
50.1552
50.2240
50.1916
50.838
50.401
50.782
50.1471
50.2035
50.2008
50.639
49.9357
49.9358
50.258
50.1057
50.1562
50.1669
50.1021
50.527
50.540
50.969
50.1804
50.2560
50.1938
50.450
49.9950
50.765
50.1758
50.2210
50.2162
50.1212
50.428
50.399
50.762
50.1171
50.1740
50.1680
50.420
49.9568
49.9872
50.752
50.1635
50.2148
50.1667
50.725
50.536
50.931
50.1450
50.2001
50.1920
50.473
49.9153
49.9130
49.9935
50.650
50.1163
50.1238
50.467
49.9964
50.0
50.310
50.1016
50.1692
50.974
49.9441
49.8900
49.9710
50.713
50.1255
50.1162
50.141
49.9350
49.9480
49.9909
50.363
50.905
50.870
49.9646
49.8845
49.9164
50.37
50.962
50.1753
50.1467
50.520
50.237
50.730
50.1460
50.2006
50.1880
50.524
49.9492
49.9737
50.657
50.1371
50.1947
50.2093
50.1389
50.1000
50.1200
50.1808
50.2685
50.3299
50.2493
50.1159
50.933
50.1888
50.2908
50.3383
50.3324
50.2390
50.1723
50.1818
50.2312
50.2838
50.3423
50.3164
50.1921
50.1295
50.1864
50.2886
50.3785
50.4261
50.3544
50.2770
50.2748
50.3313
50.3922
50.4422
50.4062
50.2515
50.1601
50.1978
50.2936
50.3612
50.4065
50.3762
50.3051
50.2759
50.2937
50.3524
50.4403
50.4771
50.3517
50.2284
50.2437
50.3554
50.4395
50.4738
50.4229
50.3169
50.2859
50.3211
50.3730
50.4277
50.4829
50.4169
50.3009
50.2812
50.3541
50.4579
50.5510
50.5741
50.4807
50.4253
50.4592
50.5334
50.6035
50.6415
50.5564
50.4235
50.4018
50.4906
50.5797
50.6389
50.6812
50.6389
50.5864
50.5896
50.6342
50.7190
50.8112
50.7770
50.6316
50.5770
50.6610
50.7729
50.8407
50.8532
50.7645
50.6920
50.7030
50.7436
50.7969
50.8635
50.8545
50.7283
50.6687
50.7294
50.8352
50.9326
50.9806
50.9074
50.8398
50.8437
50.9017
50.9661
51.209
50.9754
50.8224
50.7539
50.8061
50.9035
50.9688
51.117
50.9786
50.9075
50.8908
50.9261
50.9870
51.764
51.881
50.9553
50.8643
50.9180
51.351
51.1073
51.1230
51.459
50.9661
50.9756
51.225
51.721
51.1308
51.1500
51.405
50.9603
51.0
51.1030
51.2035
51.2886
51.2509
51.1670
51.1557
51.2187
51.3002
51.3631
51.3450
51.2010
51.1305
51.1962
51.2975
51.3726
51.4297
51.4077
51.3496
51.3415
51.3896
51.4693
51.5673
51.5709
51.4370
51.3725
51.4498
51.5716
51.6378
51.6532
51.5773
51.5104
51.5191
51.5660
51.6225
51.6894
51.6777
51.5642
51.5185
51.5830
51.6831
51.7760
51.8262
51.7560
51.6985
51.7283
51.7869
51.8456
51.8836
51.8072
51.6635
51.6396
51.7229
51.8130
51.8742
51.9057
51.8488
51.8063
51.8112
51.8569
51.9376
52.139
51.9369
51.8113
51.7981
51.9075
52.63
52.548
52.253
51.9277
51.9008
51.9442
52.15
52.608
52.1022
52.154
51.9241
51.9391
52.357
52.1438
52.2356
52.2213
52.1427
52.1224
52.1834
52.2640
52.3314
52.3094
52.1739
52.1166
52.1785
52.2816
52.3535
52.4163
52.3892
52.3341
52.3385
52.3887
52.4802
52.5860
52.5391
52.3992
52.3694
52.4691
52.5787
52.6337
52.6248
52.5485
52.5159
52.5384
52.5888
52.6526
52.7119
52.6401
52.5396
52.5481
52.6362
52.7384
52.8174
52.7886
52.7189
52.7199
52.7799
52.8416
52.8958
52.8587
52.7161
52.6547
52.7170
52.8129
52.8783
52.9139
52.8568
52.8123
52.8239
52.8705
52.9508
53.275
52.9514
52.8340
52.8349
52.9440
53.383
53.771
53.311
52.9369
52.9267
52.9766
53.296
53.918
53.1154
53.102
52.9388
52.9843
53.922
53.2057
53.2749
53.2095
53.1472
53.1716
53.2546
53.3285
53.3682
53.2753
53.1533
53.1661
53.2607
53.3528
53.4243
53.4422
53.3918
53.3736
53.4124
53.4927
53.5961
53.6046
53.4753
53.4215
53.5090
53.6211
53.6822
53.6874
53.6070
53.5670
53.5978
53.6491
53.7116
53.7659
53.6862
53.5932
53.6128
53.7127
53.8130
53.8893
53.8468
53.7809
53.7932
53.8565
53.9245
53.9773
53.9057
53.7630
53.7428
53.8341
53.9198
53.9858
53.9918
53.9375
53.9137
53.9412
54.3
54.946
54.1074
53.9832
53.9159
53.9870
54.966
54.1620
54.1635
54.710
54.208
54.576
54.1151
54.1787
54.2281
54.1483
54.636
54.871
54.1865
54.2897
54.3676
54.3241
54.2654
54.2842
54.3562
54.4292
54.4640
54.3644
54.2580
54.2762
54.3718
54.4604
54.5378
54.5315
54.4744
54.4721
54.5219
54.6087
54.7049
54.6584
54.5291
54.5254
54.6342
54.7427
54.7898
54.7518
54.6757
54.6697
54.7088
54.7637
54.8277
54.8186
54.7135
54.6747
54.7550
54.8574
54.9461
54.9579
54.8814
54.8641
54.9154
54.9769
55.347
55.10
54.8653
54.8109
54.8782
54.9585
55.334
55.672
54.9999
54.9589
54.9785
55.442
55.1410
55.1601
55.404
54.9796
55.507
55.1581
55.2183
55.2048
55.1172
55.908
55.1264
55.1761
55.2325
55.2607
55.1673
55.1093
55.1563
55.2556
55.3541
55.4033
55.3376
55.2961
55.3334
55.4062
55.4739
55.4620
55.3370
55.2911
55.3574
55.4428
55.5148
55.5626
55.5211
55.4904
55.5113
55.5838
55.6893
55.7134
55.5843
55.5269
55.6090
55.7203
55.7845
55.7802
55.7001
55.6701
55.6894
55.7357
55.8123
55.8302
55.7259
55.6752
55.7356
55.8327
55.9273
55.9421
55.8777
55.8584
55.9049
55.9663
56.201
55.9754
55.8421
55.8017
55.8724
55.9571
56.255
56.308
55.9754
55.9573
55.9766
56.448
56.1395
56.1057
55.9787
55.9548
56.536
56.1456
56.1926
56.1457
56.712
56.674
56.1074
56.1624
56.2244
56.1807
56.822
56.801
56.1653
56.2688
56.3539
56.3129
56.2499
56.2628
56.3273
56.4050
56.4374
56.3306
56.2441
56.2790
56.3666
56.4401
56.4984
56.4715
56.4394
56.4477
56.5071
56.6105
56.6543
56.5443
56.4741
56.5494
56.6521
56.7120
56.7079
56.6311
56.6040
56.6261
56.6733
56.7472
56.7490
56.6429
56.6070
56.6724
56.7716
56.8635
56.8534
56.7867
56.7819
56.8341
56.9051
56.9473
56.8483
56.7245
56.7289
56.8173
56.8952
56.9580
56.9248
56.8753
56.8710
56.9092
56.9948
57.506
56.9479
56.8638
56.9115
57.121
57.826
57.772
56.9861
56.9568
56.9920
57.397
57.1009
57.1060
57.70
56.9609
57.180
57.1193
57.2226
57.2271
57.1554
57.1456
57.2008
57.2721
57.3172
57.2298
57.1292
57.1460
57.2280
57.3025
57.3698
57.3496
57.3058
57.3123
57.3704
57.4723
57.5148
57.3999
57.3336
57.4037
57.5052
57.5652
57.5464
57.4712
57.4548
57.4828
57.5271
57.5990
57.5755
57.4744
57.4548
57.5327
57.6317
57.7080
57.6666
57.6082
57.6218
57.6767
57.7328
57.7413
57.6189
57.5425
57.5897
57.6723
57.7432
57.7732
57.7166
57.6832
57.6915
57.7442
57.8373
57.8190
57.6961
57.6697
57.7638
57.8504
57.8852
57.8211
57.7565
57.7631
57.8017
57.8614
57.9026
57.8207
57.7479
57.7746
57.8651
57.9691
58.37
57.9383
57.9101
57.9526
58.199
58.761
58.202
57.9046
57.9045
57.9813
58.522
58.1222
58.1112
58.686
58.613
58.1104
58.2099
58.2640
58.1544
58.764
58.1427
58.2483
58.3117
58.2916
58.2144
58.1880
58.2170
58.2761
58.3413
58.2930
58.1922
58.1945
58.2788
58.3745
58.4284
58.3790
58.3437
58.3677
58.4147
58.4708
58.4519
58.3234
58.2719
58.3343
58.4119
58.4743
58.4730
58.4218
58.4005
58.4223
58.4956
58.5654
58.4756
58.3768
58.4097
58.5068
58.5721
58.5728
58.4887
58.4593
58.4895
58.5333
58.5899
58.5659
58.4649
58.4511
58.5247
58.6232
58.7007
58.6596
58.6048
58.6244
58.6908
58.7573
58.7437
58.6202
58.5729
58.6339
58.7121
58.7845
58.8025
58.7521
58.7364
58.7682
58.8518
58.9287
58.8411
58.7480
58.7847
58.8852
58.9602
58.9583
58.8812
58.8451
58.8611
58.9063
58.9769
58.9569
58.8563
58.8381
58.9124
59.65
59.714
59.254
58.9835
59.18
59.510
59.1057
59.775
58.9403
58.8898
58.9512
59.307
59.942
59.824
59.236
59.40
59.368
59.1179
59.1703
59.682
58.9778
59.288
59.1324
59.1856
59.1527
59.744
59.585
59.914
59.1344
59.1783
59.1177
59.267
59.292
59.1104
59.2127
59.2734
59.2128
59.1757
59.2088
59.2732
59.3247
59.2629
59.1420
59.1391
59.2168
59.2859
59.3521
59.3281
59.2873
59.2862
59.3399
59.4391
59.4492
59.3309
59.2913
59.3726
59.4651
59.5091
59.4529
59.3859
59.3870
59.4145
59.4707
59.5028
59.4171
59.3535
59.3910
59.4825
59.5714
59.5699
59.5084
59.5006
59.5398
59.5932
59.6156
59.5006
59.4068
59.4308
59.5053
59.5708
59.5971
59.5494
59.5152
59.5208
59.5861
59.6680
59.6037
59.4962
59.5029
59.5934
59.6603
59.6638
59.5818
59.5478
59.5732
59.6090
59.6621
59.6367
59.5371
59.5205
59.5954
59.6951
59.7626
59.7089
59.6572
59.6782
59.7343
59.7871
59.7435
59.6238
59.6126
59.6869
59.7557
59.8218
59.8066
59.7595
59.7549
59.8001
59.8924
59.9077
59.7948
59.7514
59.8313
59.9178
59.9564
59.9000
59.8400
59.8388
59.8736
59.9319
59.9584
59.8639
59.7971
59.8489
59.9310
60.142
60.30
59.9418
59.9381
59.9772
60.324
60.384
59.9114
59.8347
59.8738
59.9518
60.160
60.282
59.9701
59.9382
59.9513
60.227
60.893
59.9970
59.9064
59.9411
60.282
60.845
60.574
59.9772
59.9551
59.9801
60.274
60.747
59.9991
59.9103
59.9268
60.127
60.1103
60.1349
60.697
60.396
60.766
60.1377
60.1737
60.790
59.9865
60.118
60.854
60.1516
60.1923
60.1506
60.1175
60.1345
60.2079
60.2953
60.2297
60.1153
60.1341
60.2237
60.2847
60.2895
60.2207
60.1833
60.1958
60.2340
60.2942
60.2595
60.1665
60.1590
60.2376
60.3225
60.3618
60.3017
60.2650
60.2907
60.3370
60.3799
60.3032
60.1781
60.1661
60.2382
60.3049
60.3451
60.3026
60.2611
60.2573
60.2989
60.3833
60.3594
60.2421
60.2250
60.3096
60.3795
60.3891
60.3084
60.2634
60.2742
60.3099
60.3682
60.3472
60.2445
60.2197
60.2799
60.3736
60.4464
60.4053
60.3552
60.3762
60.4264
60.4744
60.4224
60.3047
60.2862
60.3565
60.4255
60.4858
60.4609
60.4204
60.4253
60.4805
60.5687
60.5489
60.4344
60.4203
60.5054
60.5780
60.5999
60.5311
60.4847
60.4953
60.5226
60.5777
60.5690
60.4676
60.4349
60.4951
60.5814
60.6472
60.6067
60.5576
60.5643
60.6065
60.6564
60.6015
60.4706
60.4448
60.5097
60.5742
60.6234
60.5843
60.5387
60.5295
60.5704
60.6536
60.6366
60.5164
60.4867
60.5592
60.6312
60.6514
60.5754
60.5198
60.5302
60.5615
60.6127
60.5950
60.4981
60.4724
60.5323
60.6138
60.6820
60.6389
60.5858
60.6022
60.6529
60.7041
60.6593
60.5426
60.5273
60.5911
60.6535
60.7097
60.6829
60.6385
60.6385
60.6937
60.7841
60.7656
60.6466
60.6282
60.7103
60.7786
60.7990
60.7316
60.6862
60.6888
60.7206
60.7819
60.7624
60.6602
60.6289
60.6900
60.7706
60.8311
60.7813
60.7381
60.7526
60.7983
60.8386
60.7697
60.6453
60.6259
60.6939
60.7568
60.8074
60.7636
60.7112
60.6991
60.7505
60.8357
60.7986
60.6792
60.6669
60.7432
60.8077
60.8145
60.7314
60.6851
60.6940
60.7308
60.7814
60.7474
60.6477
60.6293
60.7037
60.7944
60.8501
60.7902
60.7450
60.7686
60.8204
60.8652
60.7887
60.6806
60.6874
60.7528
60.8171
60.8618
60.8247
60.7959
60.7982
60.8533
60.9370
60.8793
60.7714
60.7910
60.8792
60.9384
60.9368
60.8611
60.8288
60.8386
60.8791
60.9377
60.8785
60.7800
60.7807
60.8565
60.9414
60.9668
60.9025
60.8728
60.8960
60.9416
60.9701
60.8671
60.7630
60.7770
60.8484
60.9111
60.9353
60.8804
60.8437
60.8502
60.9020
60.9678
60.8890
60.7830
60.7990
60.8799
60.9334
60.9114
60.8328
60.8077
60.8271
60.8654
60.9070
60.8332
60.7460
60.7586
60.8344
60.9232
60.9390
60.8726
60.8469
60.8847
60.9442
60.9585
60.8449
60.7670
60.8028
60.8686
60.9362
60.9581
60.9067
60.8759
60.8966
60.9815
61.382
60.9380
60.8570
60.9044
60.9919
61.400
61.27
60.9282
60.9137
60.9306
60.9764
61.67
60.9153
60.8469
60.8822
60.9599
61.337
61.147
60.9553
60.9516
60.9876
61.326
61.252
60.8969
60.8257
60.8645
60.9292
60.9868
60.9755
60.9205
60.8981
60.9186
60.9927
61.229
60.9091
60.8434
60.8996
60.9768
61.87
60.9466
60.8796
60.8794
60.9001
60.9487
60.9562
60.8565
60.7924
60.8358
60.9216
61.20
60.9787
60.9125
60.9107
60.9621
61.125
60.9887
60.8627
60.8235
60.8726
60.9363
60.9988
60.9889
60.9389
60.9199
60.9671
61.549
61.482
60.9296
60.8968
60.9789
61.542
61.797
61.147
60.9576
60.9541
60.9823
61.375
61.256
60.9212
60.8839
60.9474
61.318
61.842
61.310
60.9869
61.13
61.442
61.841
61.234
60.8969
60.8723
60.9255
60.9879
61.336
60.9885
60.9402
60.9268
60.9701
61.515
61.69
60.8880
60.8724
60.9514
61.138
61.171
60.9342
60.8944
60.9053
60.9436
60.9915
60.9434
60.8417
60.8256
60.8843
60.9718
61.274
60.9697
60.9276
60.9475
60.9999
61.378
60.9488
60.8379
60.8457
60.9160
60.9799
61.253
60.9807
60.9431
60.9545
61.208
61.956
61.199
60.9159
60.9405
61.300
61.870
61.710
60.9926
60.9563
60.9694
61.82
61.589
60.9901
60.8937
60.9070
60.9801
61.652
61.757
61.108
60.9879
61.86
61.569
61.735
60.9517
60.8477
60.8704
60.9435
61.107
61.229
60.9605
60.9229
60.9288
60.9919
61.453
60.9493
60.8524
60.8810
60.9622
61.96
60.9683
60.8909
60.8731
60.8925
60.9336
60.9701
60.8843
60.8021
60.8209
60.9028
60.9907
60.9847
60.9151
60.9006
60.9398
60.9883
60.9865
60.8625
60.7998
60.8437
60.9099
60.9689
60.9745
60.9288
60.9099
60.9338
61.94
61.380
60.9220
60.8553
60.9204
61.38
61.459
60.9907
60.9203
60.9069
60.9253
60.9807
61.20
60.9031
60.8391
60.8814
60.9646
61.267
60.9950
60.9380
60.9374
60.9727
61.153
60.9905
60.8546
60.7986
60.8472
60.9148
60.9725
60.9484
60.8848
60.8550
60.8810
60.9573
60.9693
60.8586
60.8033
60.8622
60.9329
60.9591
60.8849
60.8220
60.8223
60.8485
60.8862
60.8868
60.7816
60.7326
60.7772
60.8613
60.9423
60.9022
60.8443
60.8438
60.8933
60.9428
60.9023
60.7785
60.7567
60.8156
60.8734
60.9280
60.9000
60.8525
60.8454
60.8967
60.9784
60.9572
60.8343
60.8113
60.8937
60.9609
60.9789
60.9097
60.8555
60.8523
60.8795
60.9378
60.9160
60.8041
60.7768
60.8410
60.9238
60.9737
60.9253
60.8808
60.8898
60.9324
60.9679
60.8902
60.7557
60.7328
60.7974
60.8620
60.9040
60.8554
60.8027
60.7928
60.8345
60.9135
60.8805
60.7576
60.7387
60.8170
60.8774
60.8764
60.7854
60.7440
60.7538
60.7856
60.8357
60.7970
60.6927
60.6785
60.7417
60.8299
60.8812
60.8207
60.7770
60.7945
60.8423
60.8848
60.8077
60.6887
60.6912
60.7546
60.8158
60.8623
60.8187
60.7835
60.7961
60.8545
60.9333
60.8711
60.7603
60.7623
60.8451
60.9049
60.9048
60.8205
60.7752
60.7858
60.8229
60.8775
60.8260
60.7267
60.7131
60.7813
60.8633
60.8948
60.8317
60.7987
60.8185
60.8567
60.8832
60.7870
60.6695
60.6684
60.7347
60.7942
60.8224
60.7688
60.7283
60.7257
60.7695
60.8406
60.7693
60.6488

END